171.0
175.0
177.0
181.0
181.0
183.0
184.0
186.0
189.0
191.0
193.0
195.0
196.0
199.0
201.0
204.0
205.0
207.0
208.0
210.0
212.0
215.0
217.0
218.0
218.0
220.0
222.0
225.0
226.0
226.0
227.0
228.0
231.0
233.0
234.0
235.0
235.0
237.0
238.0
241.0
242.0
243.0
244.0
245.0
248.0
249.0
251.0
252.0
253.0
254.0
256.0
257.0
258.0
259.0
259.0
259.0
261.0
262.0
263.0
263.0
262.0
262.0
263.0
264.0
264.0
265.0
267.0
270.0
275.0
279.0
281.0
280.0
279.0
277.0
277.0
277.0
276.0
276.0
276.0
278.0
460.0
460.0
460.0
459.0
459.0
458.0
457.0
457.0
456.0
452.0
447.0
445.0
443.0
440.0
436.0
431.0
425.0
420.0
415.0
411.0
405.0
401.0
396.0
391.0
386.0
382.0
377.0
373.0
370.0
367.0
365.0
363.0
362.0
362.0
362.0
362.0
363.0
364.0
364.0
365.0
365.0
365.0
364.0
363.0
361.0
360.0
357.0
355.0
353.0
351.0
349.0
348.0
348.0
350.0
352.0
355.0
356.0
360.0
368.0
384.0
403.0
423.0
440.0
456.0
470.0
482.0
492.0
499.0
504.0
506.0
505.0
501.0
497.0
492.0
487.0
481.0
477.0
475.0
473.0
472.0
473.0
473.0
473.0
470.0
467.0
462.0
457.0
453.0
450.0
449.0
450.0
452.0
455.0
459.0
463.0
467.0
470.0
471.0
471.0
471.0
469.0
466.0
464.0
461.0
458.0
454.0
449.0
445.0
440.0
436.0
431.0
426.0
422.0
417.0
413.0
409.0
406.0
403.0
401.0
399.0
398.0
397.0
397.0
396.0
395.0
395.0
394.0
395.0
394.0
395.0
395.0
394.0
393.0
393.0
391.0
390.0
388.0
387.0
385.0
384.0
382.0
379.0
375.0
372.0
368.0
365.0
363.0
361.0
360.0
362.0
366.0
377.0
395.0
416.0
436.0
452.0
465.0
476.0
486.0
492.0
496.0
499.0
500.0
500.0
498.0
495.0
490.0
485.0
480.0
475.0
470.0
466.0
463.0
462.0
461.0
461.0
459.0
457.0
454.0
449.0
445.0
443.0
442.0
443.0
445.0
446.0
449.0
453.0
456.0
459.0
461.0
463.0
463.0
463.0
461.0
459.0
455.0
452.0
447.0
443.0
439.0
434.0
430.0
425.0
422.0
419.0
416.0
413.0
410.0
408.0
406.0
403.0
401.0
399.0
397.0
396.0
395.0
395.0
395.0
396.0
397.0
398.0
399.0
399.0
399.0
400.0
399.0
397.0
396.0
395.0
393.0
391.0
389.0
387.0
385.0
383.0
380.0
378.0
376.0
375.0
374.0
374.0
373.0
375.0
380.0
392.0
408.0
428.0
446.0
462.0
475.0
486.0
494.0
500.0
504.0
505.0
505.0
504.0
501.0
497.0
493.0
490.0
485.0
482.0
478.0
476.0
475.0
473.0
472.0
471.0
468.0
465.0
461.0
457.0
454.0
453.0
454.0
456.0
459.0
462.0
466.0
469.0
472.0
475.0
477.0
478.0
477.0
475.0
473.0
470.0
467.0
464.0
461.0
457.0
454.0
450.0
446.0
442.0
438.0
434.0
430.0
426.0
423.0
420.0
418.0
417.0
415.0
414.0
414.0
412.0
412.0
412.0
411.0
412.0
412.0
412.0
412.0
412.0
412.0
412.0
411.0
411.0
411.0
411.0
410.0
409.0
408.0
406.0
404.0
401.0
397.0
394.0
390.0
389.0
388.0
387.0
387.0
387.0
388.0
394.0
405.0
422.0
440.0
458.0
473.0
487.0
497.0
505.0
511.0
514.0
515.0
515.0
513.0
510.0
506.0
502.0
497.0
494.0
489.0
485.0
482.0
480.0
478.0
476.0
475.0
473.0
470.0
467.0
463.0
461.0
461.0
462.0
463.0
465.0
467.0
469.0
471.0
474.0
475.0
478.0
479.0
479.0
479.0
477.0
475.0
472.0
468.0
465.0
460.0
456.0
452.0
448.0
444.0
440.0
436.0
432.0
428.0
426.0
423.0
420.0
418.0
417.0
415.0
413.0
412.0
411.0
410.0
409.0
409.0
409.0
410.0
410.0
411.0
411.0
410.0
410.0
409.0
408.0
406.0
404.0
402.0
399.0
396.0
393.0
390.0
388.0
386.0
383.0
382.0
380.0
379.0
378.0
378.0
382.0
393.0
409.0
429.0
446.0
462.0
475.0
485.0
493.0
498.0
501.0
502.0
503.0
501.0
499.0
497.0
492.0
487.0
482.0
476.0
471.0
468.0
465.0
464.0
464.0
462.0
461.0
458.0
454.0
450.0
446.0
444.0
444.0
445.0
448.0
451.0
455.0
459.0
462.0
465.0
466.0
467.0
467.0
466.0
464.0
462.0
460.0
457.0
454.0
451.0
447.0
442.0
438.0
433.0
428.0
423.0
420.0
416.0
414.0
412.0
410.0
409.0
407.0
407.0
405.0
403.0
402.0
401.0
400.0
399.0
400.0
400.0
401.0
402.0
404.0
405.0
404.0
403.0
401.0
399.0
397.0
395.0
393.0
389.0
387.0
385.0
383.0
382.0
382.0
382.0
381.0
381.0
383.0
389.0
401.0
418.0
435.0
451.0
465.0
476.0
485.0
492.0
496.0
499.0
499.0
498.0
497.0
494.0
491.0
487.0
483.0
479.0
475.0
471.0
467.0
464.0
463.0
461.0
459.0
458.0
455.0
453.0
451.0
449.0
448.0
449.0
450.0
452.0
455.0
458.0
462.0
465.0
467.0
469.0
469.0
469.0
469.0
467.0
464.0
461.0
457.0
453.0
449.0
444.0
440.0
436.0
433.0
430.0
427.0
424.0
421.0
418.0
415.0
412.0
410.0
408.0
407.0
407.0
407.0
408.0
409.0
409.0
410.0
410.0
410.0
410.0
410.0
410.0
410.0
409.0
409.0
408.0
406.0
404.0
401.0
399.0
397.0
396.0
395.0
394.0
394.0
394.0
393.0
396.0
401.0
411.0
424.0
438.0
453.0
466.0
477.0
486.0
493.0
499.0
502.0
504.0
504.0
502.0
499.0
496.0
492.0
487.0
483.0
480.0
478.0
477.0
476.0
475.0
474.0
472.0
469.0
466.0
461.0
457.0
455.0
455.0
455.0
457.0
460.0
463.0
466.0
469.0
472.0
474.0
475.0
475.0
475.0
474.0
473.0
471.0
468.0
465.0
461.0
457.0
453.0
449.0
444.0
440.0
436.0
433.0
431.0
429.0
427.0
425.0
423.0
422.0
420.0
418.0
417.0
416.0
416.0
416.0
416.0
417.0
418.0
418.0
419.0
418.0
417.0
416.0
415.0
412.0
409.0
405.0
403.0
401.0
400.0
400.0
401.0
402.0
402.0
401.0
402.0
405.0
412.0
424.0
438.0
451.0
465.0
476.0
485.0
492.0
496.0
500.0
502.0
501.0
499.0
495.0
491.0
486.0
482.0
477.0
474.0
471.0
469.0
468.0
468.0
468.0
468.0
466.0
462.0
458.0
453.0
450.0
449.0
450.0
452.0
454.0
458.0
461.0
464.0
465.0
466.0
466.0
465.0
464.0
462.0
460.0
458.0
455.0
452.0
448.0
445.0
441.0
438.0
434.0
431.0
428.0
425.0
422.0
419.0
416.0
414.0
412.0
411.0
409.0
408.0
407.0
406.0
406.0
406.0
406.0
406.0
406.0
407.0
406.0
406.0
405.0
404.0
402.0
401.0
399.0
397.0
396.0
394.0
393.0
392.0
392.0
391.0
390.0
389.0
388.0
390.0
396.0
406.0
418.0
433.0
447.0
458.0
468.0
475.0
479.0
482.0
483.0
482.0
480.0
478.0
475.0
472.0
468.0
464.0
461.0
458.0
455.0
452.0
451.0
449.0
447.0
445.0
442.0
439.0
436.0
435.0
434.0
435.0
437.0
439.0
441.0
444.0
447.0
450.0
451.0
452.0
452.0
452.0
451.0
449.0
447.0
445.0
443.0
440.0
438.0
434.0
430.0
425.0
421.0
418.0
415.0
413.0
410.0
409.0
407.0
407.0
405.0
405.0
405.0
404.0
404.0
404.0
405.0
405.0
405.0
406.0
406.0
406.0
406.0
406.0
406.0
406.0
405.0
404.0
403.0
402.0
401.0
400.0
400.0
399.0
399.0
398.0
399.0
400.0
404.0
413.0
424.0
436.0
449.0
459.0
468.0
475.0
480.0
484.0
486.0
486.0
485.0
483.0
481.0
478.0
474.0
470.0
466.0
463.0
461.0
459.0
458.0
456.0
455.0
453.0
450.0
446.0
443.0
441.0
440.0
441.0
442.0
445.0
447.0
451.0
454.0
457.0
459.0
460.0
460.0
460.0
459.0
457.0
456.0
454.0
451.0
449.0
446.0
443.0
440.0
438.0
434.0
432.0
429.0
426.0
424.0
422.0
421.0
421.0
419.0
418.0
418.0
418.0
418.0
419.0
419.0
420.0
420.0
420.0
420.0
420.0
419.0
419.0
417.0
416.0
415.0
413.0
412.0
411.0
410.0
410.0
410.0
410.0
409.0
409.0
409.0
413.0
420.0
430.0
442.0
454.0
465.0
474.0
483.0
488.0
493.0
496.0
497.0
497.0
496.0
494.0
490.0
486.0
482.0
478.0
475.0
473.0
471.0
471.0
471.0
470.0
469.0
466.0
463.0
460.0
457.0
455.0
454.0
454.0
455.0
456.0
457.0
460.0
462.0
464.0
465.0
466.0
466.0
465.0
463.0
461.0
460.0
457.0
454.0
452.0
449.0
446.0
443.0
439.0
435.0
433.0
430.0
428.0
426.0
425.0
424.0
423.0
423.0
423.0
424.0
424.0
424.0
425.0
424.0
424.0
424.0
424.0
423.0
423.0
422.0
421.0
421.0
420.0
419.0
417.0
416.0
415.0
414.0
413.0
412.0
412.0
411.0
411.0
412.0
417.0
425.0
437.0
449.0
462.0
473.0
482.0
489.0
495.0
498.0
498.0
497.0
494.0
490.0
486.0
483.0
479.0
475.0
473.0
470.0
469.0
468.0
467.0
467.0
466.0
463.0
460.0
456.0
452.0
449.0
447.0
446.0
445.0
446.0
447.0
449.0
450.0
451.0
451.0
450.0
449.0
448.0
447.0
445.0
442.0
440.0
438.0
435.0
432.0
429.0
426.0
423.0
421.0
418.0
416.0
413.0
411.0
410.0
409.0
409.0
409.0
409.0
410.0
411.0
411.0
411.0
411.0
410.0
410.0
410.0
410.0
410.0
409.0
407.0
407.0
407.0
406.0
406.0
406.0
404.0
403.0
401.0
398.0
395.0
394.0
393.0
393.0
393.0
395.0
397.0
402.0
408.0
417.0
428.0
439.0
450.0
459.0
467.0
473.0
477.0
481.0
481.0
482.0
481.0
477.0
474.0
469.0
465.0
461.0
458.0
456.0
456.0
456.0
457.0
457.0
457.0
456.0
453.0
450.0
447.0
444.0
443.0
443.0
445.0
445.0
447.0
449.0
450.0
451.0
452.0
452.0
451.0
451.0
449.0
447.0
446.0
443.0
441.0
438.0
436.0
433.0
431.0
429.0
426.0
424.0
422.0
420.0
418.0
417.0
415.0
414.0
413.0
412.0
412.0
412.0
412.0
412.0
411.0
410.0
410.0
409.0
409.0
408.0
408.0
407.0
406.0
406.0
405.0
404.0
403.0
401.0
400.0
399.0
398.0
397.0
396.0
393.0
391.0
389.0
387.0
386.0
385.0
384.0
384.0
384.0
385.0
389.0
396.0
407.0
421.0
433.0
445.0
455.0
463.0
469.0
471.0
472.0
471.0
468.0
465.0
461.0
458.0
454.0
451.0
447.0
445.0
444.0
443.0
443.0
444.0
444.0
444.0
441.0
439.0
435.0
433.0
431.0
431.0
430.0
432.0
433.0
435.0
437.0
438.0
440.0
441.0
441.0
441.0
440.0
439.0
437.0
434.0
432.0
429.0
427.0
424.0
421.0
418.0
416.0
413.0
411.0
410.0
408.0
407.0
406.0
405.0
404.0
404.0
403.0
402.0
402.0
403.0
402.0
402.0
402.0
402.0
401.0
401.0
401.0
401.0
400.0
398.0
398.0
397.0
396.0
395.0
395.0
395.0
394.0
393.0
392.0
391.0
389.0
388.0
386.0
384.0
381.0
379.0
377.0
375.0
373.0
372.0
372.0
372.0
372.0
371.0
372.0
373.0
377.0
384.0
394.0
406.0
418.0
430.0
439.0
447.0
453.0
457.0
459.0
459.0
457.0
454.0
451.0
447.0
443.0
439.0
437.0
435.0
433.0
432.0
431.0
431.0
430.0
430.0
428.0
427.0
424.0
422.0
421.0
421.0
421.0
424.0
425.0
428.0
429.0
431.0
432.0
434.0
433.0
434.0
432.0
432.0
430.0
428.0
426.0
424.0
422.0
419.0
416.0
414.0
410.0
408.0
406.0
405.0
402.0
401.0
399.0
398.0
397.0
397.0
396.0
397.0
396.0
396.0
396.0
396.0
395.0
395.0
394.0
393.0
393.0
393.0
392.0
392.0
391.0
391.0
390.0
390.0
390.0
389.0
388.0
387.0
386.0
385.0
383.0
381.0
379.0
378.0
377.0
376.0
374.0
373.0
372.0
371.0
369.0
368.0
367.0
367.0
366.0
366.0
368.0
373.0
382.0
395.0
408.0
421.0
432.0
441.0
449.0
453.0
457.0
457.0
456.0
455.0
452.0
449.0
445.0
442.0
437.0
434.0
432.0
431.0
430.0
430.0
430.0
430.0
430.0
428.0
426.0
424.0
421.0
420.0
420.0
420.0
421.0
423.0
425.0
428.0
430.0
432.0
433.0
433.0
433.0
433.0
432.0
430.0
428.0
427.0
425.0
423.0
421.0
419.0
416.0
414.0
412.0
409.0
407.0
405.0
403.0
401.0
400.0
399.0
398.0
398.0
398.0
398.0
398.0
397.0
397.0
396.0
395.0
394.0
393.0
393.0
392.0
392.0
391.0
391.0
391.0
391.0
390.0
390.0
389.0
388.0
387.0
386.0
385.0
384.0
383.0
382.0
381.0
379.0
378.0
376.0
375.0
373.0
372.0
370.0
369.0
369.0
369.0
368.0
368.0
369.0
370.0
374.0
382.0
394.0
408.0
421.0
432.0
443.0
451.0
458.0
461.0
463.0
463.0
462.0
459.0
456.0
443.0
444.0
444.0
445.0
443.0
442.0
440.0
439.0
436.0
434.0
431.0
429.0
425.0
423.0
420.0
419.0
416.0
414.0
412.0
411.0
409.0
409.0
407.0
407.0
406.0
405.0
404.0
405.0
404.0
405.0
404.0
403.0
403.0
403.0
403.0
403.0
403.0
404.0
404.0
404.0
404.0
403.0
402.0
401.0
400.0
398.0
396.0
395.0
393.0
391.0
389.0
388.0
386.0
385.0
384.0
383.0
383.0
383.0
383.0
388.0
395.0
406.0
420.0
435.0
447.0
459.0
468.0
475.0
480.0
484.0
485.0
485.0
483.0
481.0
477.0
475.0
471.0
468.0
464.0
462.0
460.0
458.0
456.0
456.0
455.0
454.0
452.0
450.0
447.0
446.0
444.0
444.0
445.0
448.0
449.0
452.0
454.0
458.0
459.0
462.0
462.0
464.0
463.0
464.0
462.0
460.0
457.0
454.0
451.0
447.0
444.0
441.0
439.0
437.0
434.0
431.0
427.0
425.0
422.0
420.0
418.0
417.0
416.0
415.0
414.0
414.0
413.0
412.0
444.0
444.0
444.0
443.0
443.0
442.0
441.0
440.0
440.0
435.0
429.0
427.0
424.0
422.0
420.0
419.0
418.0
417.0
416.0
415.0
415.0
414.0
414.0
414.0
415.0
415.0
416.0
416.0
416.0
415.0
413.0
411.0
409.0
407.0
407.0
406.0
405.0
404.0
403.0
403.0
403.0
404.0
406.0
406.0
407.0
411.0
418.0
429.0
441.0
453.0
465.0
476.0
485.0
492.0
497.0
501.0
502.0
501.0
499.0
495.0
491.0
487.0
483.0
479.0
477.0
477.0
476.0
478.0
479.0
480.0
481.0
480.0
477.0
474.0
470.0
467.0
466.0
465.0
466.0
467.0
470.0
473.0
476.0
478.0
479.0
480.0
480.0
479.0
477.0
474.0
471.0
468.0
465.0
463.0
460.0
458.0
455.0
453.0
451.0
449.0
446.0
444.0
441.0
439.0
437.0
437.0
436.0
436.0
435.0
434.0
434.0
434.0
434.0
433.0
432.0
431.0
431.0
431.0
430.0
429.0
428.0
427.0
426.0
425.0
423.0
422.0
421.0
419.0
416.0
414.0
411.0
409.0
407.0
405.0
404.0
403.0
403.0
406.0
411.0
421.0
432.0
446.0
457.0
467.0
475.0
481.0
485.0
487.0
488.0
487.0
485.0
482.0
478.0
474.0
470.0
467.0
464.0
461.0
460.0
459.0
459.0
459.0
459.0
458.0
456.0
453.0
449.0
446.0
445.0
444.0
444.0
446.0
448.0
450.0
453.0
455.0
456.0
458.0
458.0
458.0
457.0
455.0
453.0
451.0
448.0
446.0
443.0
440.0
437.0
435.0
433.0
430.0
429.0
427.0
425.0
423.0
422.0
420.0
418.0
417.0
416.0
414.0
413.0
413.0
414.0
414.0
415.0
416.0
416.0
417.0
417.0
416.0
415.0
414.0
412.0
411.0
409.0
408.0
406.0
406.0
405.0
405.0
405.0
405.0
404.0
403.0
403.0
403.0
405.0
411.0
420.0
431.0
442.0
453.0
462.0
469.0
474.0
478.0
479.0
479.0
478.0
476.0
473.0
469.0
465.0
462.0
457.0
454.0
452.0
451.0
450.0
449.0
449.0
448.0
445.0
442.0
440.0
437.0
436.0
435.0
436.0
438.0
440.0
443.0
447.0
450.0
452.0
453.0
454.0
454.0
453.0
452.0
450.0
448.0
445.0
442.0
439.0
436.0
434.0
431.0
429.0
427.0
425.0
422.0
420.0
418.0
416.0
415.0
414.0
413.0
412.0
412.0
413.0
413.0
414.0
414.0
414.0
414.0
415.0
415.0
415.0
415.0
415.0
414.0
414.0
413.0
412.0
411.0
410.0
408.0
407.0
406.0
406.0
405.0
404.0
404.0
405.0
410.0
418.0
428.0
441.0
453.0
464.0
473.0
479.0
484.0
486.0
487.0
487.0
485.0
482.0
479.0
476.0
471.0
468.0
465.0
463.0
461.0
461.0
460.0
460.0
460.0
459.0
456.0
454.0
451.0
449.0
447.0
447.0
447.0
448.0
450.0
453.0
456.0
459.0
461.0
462.0
462.0
462.0
461.0
460.0
458.0
456.0
453.0
451.0
449.0
446.0
443.0
440.0
437.0
433.0
431.0
429.0
426.0
425.0
423.0
422.0
420.0
419.0
419.0
419.0
419.0
419.0
419.0
420.0
420.0
421.0
420.0
420.0
419.0
418.0
417.0
417.0
416.0
416.0
415.0
414.0
412.0
410.0
409.0
408.0
407.0
407.0
407.0
408.0
411.0
418.0
428.0
440.0
453.0
464.0
473.0
480.0
485.0
489.0
492.0
492.0
492.0
491.0
489.0
486.0
482.0
478.0
474.0
471.0
468.0
466.0
466.0
466.0
466.0
465.0
465.0
463.0
460.0
458.0
455.0
453.0
453.0
453.0
455.0
457.0
459.0
462.0
465.0
466.0
467.0
468.0
468.0
467.0
466.0
464.0
462.0
460.0
457.0
453.0
450.0
447.0
443.0
440.0
438.0
435.0
432.0
431.0
429.0
427.0
425.0
424.0
423.0
421.0
421.0
420.0
420.0
420.0
420.0
421.0
422.0
422.0
422.0
422.0
421.0
420.0
420.0
419.0
417.0
416.0
414.0
412.0
411.0
409.0
407.0
406.0
406.0
405.0
405.0
406.0
412.0
422.0
435.0
449.0
462.0
474.0
483.0
490.0
495.0
497.0
499.0
498.0
496.0
494.0
490.0
487.0
482.0
479.0
477.0
474.0
472.0
471.0
470.0
470.0
469.0
468.0
466.0
464.0
460.0
457.0
455.0
454.0
455.0
457.0
459.0
462.0
466.0
468.0
471.0
472.0
473.0
473.0
472.0
471.0
470.0
467.0
465.0
462.0
459.0
457.0
454.0
452.0
449.0
445.0
442.0
439.0
436.0
433.0
431.0
429.0
428.0
426.0
426.0
426.0
426.0
427.0
427.0
427.0
427.0
427.0
426.0
426.0
426.0
425.0
424.0
424.0
423.0
423.0
422.0
421.0
419.0
418.0
416.0
415.0
414.0
413.0
412.0
411.0
411.0
413.0
419.0
430.0
442.0
455.0
467.0
477.0
485.0
491.0
495.0
497.0
497.0
496.0
494.0
490.0
487.0
484.0
481.0
478.0
476.0
474.0
473.0
471.0
470.0
469.0
467.0
465.0
461.0
456.0
453.0
451.0
451.0
451.0
454.0
457.0
461.0
464.0
468.0
471.0
473.0
474.0
475.0
474.0
473.0
471.0
469.0
467.0
465.0
462.0
459.0
455.0
452.0
448.0
444.0
440.0
437.0
433.0
430.0
428.0
427.0
426.0
425.0
424.0
424.0
423.0
424.0
424.0
425.0
425.0
425.0
426.0
425.0
424.0
423.0
423.0
423.0
422.0
422.0
421.0
420.0
419.0
419.0
417.0
417.0
416.0
415.0
417.0
422.0
431.0
444.0
457.0
469.0
480.0
488.0
495.0
500.0
502.0
503.0
503.0
502.0
499.0
497.0
493.0
490.0
487.0
484.0
481.0
479.0
477.0
476.0
475.0
474.0
472.0
469.0
466.0
462.0
459.0
458.0
457.0
458.0
459.0
462.0
465.0
468.0
471.0
473.0
475.0
475.0
475.0
475.0
473.0
472.0
469.0
467.0
463.0
460.0
455.0
452.0
449.0
445.0
442.0
438.0
434.0
431.0
428.0
426.0
424.0
423.0
422.0
422.0
422.0
422.0
422.0
423.0
422.0
422.0
422.0
422.0
422.0
422.0
421.0
419.0
418.0
417.0
415.0
415.0
415.0
414.0
414.0
414.0
415.0
418.0
425.0
436.0
449.0
461.0
473.0
483.0
491.0
498.0
501.0
504.0
504.0
503.0
502.0
499.0
496.0
492.0
489.0
485.0
483.0
480.0
479.0
479.0
479.0
478.0
477.0
475.0
473.0
470.0
466.0
464.0
462.0
462.0
463.0
464.0
465.0
468.0
470.0
471.0
472.0
473.0
474.0
473.0
472.0
470.0
468.0
466.0
463.0
462.0
459.0
458.0
454.0
447.0
441.0
435.0
431.0
428.0
425.0
425.0
426.0
427.0
426.0
427.0
427.0
425.0
423.0
421.0
420.0
418.0
417.0
417.0
417.0
417.0
417.0
417.0
417.0
416.0
416.0
414.0
413.0
411.0
410.0
409.0
409.0
410.0
414.0
422.0
433.0
446.0
458.0
470.0
479.0
485.0
489.0
491.0
492.0
491.0
489.0
486.0
482.0
479.0
476.0
473.0
471.0
469.0
468.0
467.0
467.0
467.0
466.0
465.0
463.0
458.0
454.0
451.0
449.0
448.0
448.0
450.0
452.0
454.0
457.0
458.0
459.0
460.0
460.0
460.0
458.0
456.0
455.0
452.0
449.0
447.0
444.0
443.0
440.0
437.0
434.0
431.0
427.0
424.0
421.0
420.0
418.0
417.0
416.0
416.0
416.0
416.0
415.0
415.0
415.0
415.0
415.0
414.0
413.0
413.0
413.0
413.0
412.0
411.0
410.0
409.0
408.0
407.0
407.0
406.0
406.0
405.0
406.0
410.0
416.0
425.0
436.0
448.0
458.0
466.0
473.0
478.0
481.0
482.0
482.0
480.0
477.0
475.0
471.0
469.0
465.0
462.0
459.0
457.0
456.0
455.0
454.0
454.0
452.0
451.0
448.0
445.0
443.0
441.0
440.0
440.0
442.0
444.0
447.0
449.0
451.0
452.0
453.0
453.0
453.0
451.0
450.0
448.0
446.0
444.0
441.0
438.0
436.0
433.0
430.0
427.0
424.0
421.0
418.0
417.0
415.0
413.0
412.0
412.0
411.0
411.0
411.0
411.0
411.0
411.0
411.0
411.0
411.0
411.0
411.0
410.0
409.0
409.0
408.0
408.0
407.0
406.0
405.0
405.0
405.0
405.0
404.0
404.0
405.0
407.0
412.0
420.0
430.0
441.0
452.0
461.0
468.0
473.0
476.0
478.0
478.0
477.0
475.0
472.0
469.0
466.0
463.0
460.0
458.0
456.0
453.0
453.0
452.0
451.0
449.0
447.0
444.0
441.0
439.0
437.0
437.0
438.0
439.0
441.0
444.0
447.0
449.0
452.0
453.0
454.0
454.0
453.0
451.0
449.0
447.0
445.0
442.0
439.0
436.0
433.0
430.0
428.0
426.0
424.0
422.0
420.0
418.0
416.0
415.0
414.0
413.0
413.0
413.0
412.0
413.0
413.0
413.0
414.0
414.0
414.0
414.0
414.0
414.0
412.0
410.0
409.0
408.0
407.0
407.0
406.0
406.0
406.0
406.0
405.0
405.0
407.0
411.0
418.0
428.0
439.0
451.0
460.0
468.0
475.0
479.0
481.0
482.0
481.0
479.0
476.0
473.0
469.0
466.0
463.0
460.0
459.0
456.0
455.0
455.0
455.0
454.0
453.0
452.0
450.0
447.0
445.0
443.0
443.0
443.0
444.0
447.0
449.0
452.0
454.0
456.0
456.0
457.0
457.0
456.0
454.0
452.0
450.0
448.0
445.0
443.0
440.0
437.0
435.0
433.0
430.0
428.0
426.0
425.0
423.0
422.0
421.0
420.0
419.0
419.0
419.0
420.0
419.0
419.0
419.0
419.0
419.0
420.0
420.0
420.0
420.0
419.0
418.0
417.0
416.0
414.0
413.0
411.0
411.0
410.0
410.0
411.0
411.0
410.0
412.0
416.0
423.0
434.0
446.0
458.0
468.0
476.0
483.0
487.0
489.0
490.0
490.0
488.0
485.0
482.0
479.0
476.0
473.0
470.0
469.0
467.0
466.0
466.0
466.0
466.0
465.0
464.0
461.0
458.0
455.0
454.0
454.0
454.0
455.0
457.0
459.0
462.0
465.0
466.0
468.0
468.0
467.0
466.0
464.0
462.0
460.0
458.0
455.0
452.0
450.0
447.0
444.0
441.0
438.0
435.0
434.0
432.0
431.0
430.0
429.0
428.0
427.0
427.0
426.0
426.0
425.0
425.0
425.0
425.0
425.0
424.0
425.0
426.0
426.0
426.0
426.0
425.0
423.0
421.0
419.0
417.0
415.0
413.0
412.0
410.0
409.0
408.0
408.0
408.0
408.0
410.0
415.0
424.0
436.0
448.0
461.0
471.0
479.0
486.0
489.0
492.0
493.0
492.0
491.0
488.0
486.0
483.0
479.0
477.0
474.0
472.0
469.0
468.0
467.0
468.0
467.0
466.0
464.0
462.0
459.0
458.0
456.0
456.0
456.0
457.0
459.0
461.0
462.0
465.0
467.0
468.0
468.0
468.0
467.0
466.0
464.0
462.0
459.0
455.0
453.0
450.0
448.0
445.0
443.0
441.0
438.0
436.0
435.0
433.0
432.0
430.0
429.0
428.0
427.0
426.0
425.0
425.0
425.0
425.0
425.0
425.0
425.0
425.0
425.0
425.0
425.0
424.0
422.0
421.0
420.0
418.0
416.0
414.0
412.0
410.0
409.0
407.0
406.0
406.0
405.0
405.0
404.0
404.0
407.0
414.0
424.0
436.0
448.0
459.0
468.0
475.0
479.0
483.0
485.0
485.0
484.0
483.0
480.0
478.0
474.0
471.0
468.0
465.0
462.0
460.0
458.0
457.0
457.0
456.0
454.0
452.0
449.0
447.0
445.0
445.0
446.0
447.0
449.0
451.0
453.0
455.0
457.0
459.0
460.0
461.0
460.0
459.0
457.0
455.0
452.0
449.0
446.0
443.0
440.0
437.0
434.0
431.0
429.0
427.0
425.0
423.0
422.0
421.0
421.0
420.0
419.0
418.0
418.0
417.0
417.0
418.0
418.0
418.0
419.0
420.0
420.0
420.0
420.0
419.0
418.0
417.0
416.0
415.0
414.0
412.0
410.0
409.0
409.0
409.0
408.0
407.0
407.0
408.0
411.0
417.0
427.0
438.0
449.0
459.0
468.0
475.0
480.0
483.0
486.0
486.0
485.0
482.0
479.0
475.0
471.0
467.0
464.0
461.0
458.0
457.0
457.0
457.0
456.0
455.0
453.0
450.0
446.0
442.0
440.0
440.0
440.0
442.0
445.0
448.0
451.0
453.0
456.0
457.0
457.0
456.0
455.0
453.0
451.0
448.0
446.0
443.0
441.0
437.0
434.0
431.0
427.0
424.0
422.0
419.0
417.0
415.0
414.0
413.0
413.0
412.0
411.0
410.0
409.0
409.0
409.0
409.0
409.0
409.0
410.0
411.0
412.0
412.0
412.0
412.0
411.0
409.0
408.0
407.0
405.0
403.0
402.0
401.0
401.0
401.0
400.0
400.0
401.0
405.0
413.0
423.0
435.0
447.0
457.0
465.0
471.0
475.0
478.0
479.0
480.0
480.0
478.0
475.0
472.0
469.0
465.0
462.0
460.0
458.0
457.0
458.0
459.0
459.0
460.0
458.0
455.0
452.0
449.0
448.0
448.0
449.0
450.0
452.0
453.0
455.0
457.0
458.0
459.0
460.0
459.0
459.0
458.0
457.0
456.0
454.0
451.0
447.0
443.0
439.0
434.0
430.0
426.0
424.0
422.0
420.0
420.0
419.0
418.0
416.0
415.0
413.0
412.0
411.0
411.0
411.0
412.0
413.0
414.0
414.0
415.0
414.0
413.0
411.0
410.0
409.0
408.0
407.0
406.0
405.0
404.0
402.0
399.0
398.0
397.0
397.0
397.0
398.0
402.0
407.0
414.0
424.0
433.0
442.0
449.0
456.0
463.0
468.0
470.0
471.0
470.0
468.0
466.0
464.0
462.0
460.0
459.0
459.0
458.0
457.0
456.0
455.0
454.0
452.0
450.0
448.0
445.0
443.0
442.0
440.0
440.0
440.0
440.0
440.0
443.0
444.0
446.0
448.0
449.0
450.0
451.0
451.0
451.0
451.0
450.0
449.0
448.0
446.0
444.0
442.0
440.0
439.0
438.0
436.0
436.0
434.0
432.0
430.0
428.0
427.0
425.0
425.0
425.0
425.0
426.0
426.0
426.0
426.0
424.0
423.0
423.0
423.0
424.0
424.0
424.0
423.0
423.0
424.0
423.0
423.0
423.0
422.0
421.0
421.0
420.0
419.0
418.0
416.0
414.0
413.0
411.0
410.0
409.0
408.0
409.0
409.0
410.0
411.0
415.0
421.0
429.0
438.0
447.0
456.0
464.0
471.0
477.0
480.0
482.0
482.0
480.0
479.0
477.0
475.0
474.0
473.0
472.0
471.0
469.0
469.0
469.0
468.0
468.0
467.0
465.0
462.0
459.0
456.0
453.0
451.0
450.0
450.0
451.0
453.0
455.0
458.0
459.0
460.0
461.0
461.0
460.0
459.0
457.0
455.0
453.0
452.0
450.0
447.0
445.0
444.0
441.0
439.0
436.0
432.0
429.0
427.0
425.0
423.0
423.0
422.0
422.0
421.0
421.0
420.0
419.0
417.0
415.0
414.0
413.0
413.0
413.0
413.0
413.0
413.0
413.0
412.0
412.0
411.0
410.0
410.0
410.0
410.0
410.0
410.0
409.0
408.0
407.0
405.0
403.0
402.0
402.0
401.0
400.0
399.0
398.0
397.0
395.0
393.0
391.0
389.0
388.0
387.0
387.0
385.0
384.0
383.0
382.0
381.0
380.0
379.0
380.0
385.0
395.0
410.0
426.0
441.0
452.0
462.0
471.0
476.0
479.0
481.0
481.0
479.0
477.0
475.0
472.0
468.0
465.0
461.0
458.0
455.0
454.0
453.0
453.0
454.0
455.0
454.0
452.0
450.0
447.0
445.0
443.0
442.0
441.0
442.0
443.0
445.0
448.0
450.0
453.0
455.0
457.0
459.0
460.0
460.0
459.0
457.0
456.0
455.0
453.0
450.0
448.0
446.0
444.0
442.0
440.0
438.0
436.0
434.0
433.0
430.0
429.0
427.0
426.0
425.0
424.0
423.0
424.0
424.0
424.0
424.0
423.0
422.0
421.0
421.0
421.0
420.0
420.0
419.0
419.0
418.0
417.0
417.0
417.0
416.0
415.0
414.0
412.0
411.0
409.0
407.0
406.0
405.0
404.0
403.0
402.0
402.0
401.0
400.0
399.0
397.0
396.0
394.0
394.0
392.0
392.0
390.0
389.0
388.0
388.0
388.0
388.0
391.0
397.0
410.0
425.0
441.0
454.0
465.0
475.0
482.0
487.0
490.0
492.0
492.0
492.0
490.0
489.0
486.0
484.0
481.0
479.0
477.0
475.0
474.0
473.0
472.0
472.0
471.0
469.0
467.0
464.0
462.0
458.0
457.0
455.0
455.0
455.0
456.0
458.0
460.0
463.0
465.0
466.0
466.0
467.0
466.0
465.0
464.0
463.0
461.0
459.0
457.0
455.0
452.0
450.0
447.0
446.0
443.0
440.0
438.0
436.0
434.0
433.0
431.0
430.0
429.0
428.0
427.0
426.0
427.0
426.0
426.0
427.0
427.0
428.0
428.0
428.0
428.0
427.0
427.0
427.0
427.0
427.0
426.0
425.0
424.0
423.0
422.0
422.0
420.0
419.0
417.0
416.0
414.0
413.0
412.0
411.0
409.0
408.0
406.0
404.0
401.0
399.0
397.0
395.0
394.0
393.0
392.0
394.0
399.0
409.0
424.0
439.0
452.0
464.0
474.0
482.0
487.0
492.0
493.0
493.0
492.0
491.0
488.0
486.0
483.0
481.0
478.0
475.0
472.0
470.0
468.0
467.0
465.0
463.0
461.0
459.0
456.0
453.0
450.0
448.0
448.0
448.0
450.0
453.0
456.0
459.0
462.0
464.0
467.0
469.0
469.0
471.0
470.0
469.0
469.0
467.0
464.0
463.0
460.0
459.0
457.0
454.0
451.0
449.0
446.0
443.0
441.0
438.0
435.0
433.0
430.0
430.0
429.0
428.0
428.0
427.0
427.0
427.0
428.0
428.0
428.0
428.0
429.0
429.0
430.0
430.0
429.0
429.0
429.0
429.0
428.0
428.0
427.0
426.0
425.0
424.0
423.0
421.0
418.0
417.0
414.0
413.0
411.0
410.0
409.0
409.0
412.0
421.0
433.0
447.0
460.0
471.0
481.0
489.0
494.0
498.0
501.0
502.0
502.0
501.0
501.0
498.0
496.0
493.0
491.0
487.0
484.0
481.0
479.0
477.0
475.0
474.0
472.0
470.0
467.0
464.0
459.0
457.0
456.0
455.0
457.0
458.0
460.0
462.0
465.0
467.0
470.0
472.0
473.0
474.0
474.0
474.0
473.0
471.0
469.0
466.0
463.0
461.0
457.0
455.0
452.0
450.0
447.0
445.0
442.0
439.0
435.0
433.0
430.0
428.0
426.0
424.0
423.0
423.0
422.0
422.0
422.0
422.0
422.0
423.0
423.0
423.0
424.0
424.0
424.0
424.0
423.0
422.0
421.0
419.0
417.0
416.0
415.0
415.0
414.0
414.0
413.0
414.0
416.0
423.0
434.0
447.0
459.0
470.0
479.0
488.0
494.0
499.0
502.0
504.0
504.0
504.0
503.0
500.0
498.0
496.0
494.0
491.0
489.0
487.0
485.0
483.0
482.0
480.0
478.0
476.0
474.0
471.0
468.0
465.0
463.0
463.0
464.0
465.0
467.0
469.0
471.0
473.0
475.0
477.0
478.0
479.0
479.0
478.0
476.0
475.0
474.0
471.0
469.0
466.0
463.0
461.0
458.0
455.0
452.0
449.0
445.0
442.0
440.0
438.0
436.0
434.0
433.0
432.0
431.0
429.0
429.0
429.0
429.0
429.0
430.0
430.0
430.0
430.0
430.0
430.0
429.0
428.0
427.0
427.0
426.0
426.0
426.0
427.0
429.0
435.0
443.0
453.0
464.0
475.0
484.0
492.0
498.0
502.0
505.0
506.0
507.0
506.0
505.0
503.0
501.0
499.0
497.0
494.0
490.0
487.0
485.0
483.0
481.0
479.0
477.0
475.0
472.0
468.0
464.0
461.0
459.0
458.0
458.0
460.0
462.0
464.0
467.0
469.0
471.0
473.0
474.0
474.0
474.0
474.0
473.0
471.0
470.0
468.0
466.0
464.0
462.0
459.0
457.0
454.0
452.0
449.0
447.0
446.0
444.0
442.0
441.0
440.0
438.0
437.0
436.0
435.0
434.0
433.0
432.0
432.0
431.0
431.0
430.0
431.0
431.0
431.0
432.0
433.0
434.0
435.0
436.0
440.0
445.0
454.0
464.0
473.0
482.0
489.0
494.0
498.0
502.0
503.0
504.0
504.0
503.0
501.0
498.0
495.0
492.0
489.0
486.0
484.0
482.0
480.0
478.0
476.0
474.0
471.0
468.0
465.0
463.0
460.0
458.0
458.0
459.0
460.0
462.0
465.0
467.0
469.0
472.0
473.0
475.0
477.0
477.0
476.0
475.0
473.0
470.0
468.0
465.0
462.0
458.0
456.0
454.0
452.0
450.0
449.0
447.0
444.0
441.0
440.0
437.0
435.0
433.0
432.0
431.0
430.0
430.0
430.0
430.0
431.0
432.0
433.0
434.0
435.0
436.0
436.0
438.0
442.0
448.0
456.0
466.0
474.0
482.0
489.0
495.0
498.0
501.0
502.0
502.0
502.0
500.0
497.0
495.0
491.0
488.0
485.0
482.0
479.0
477.0
474.0
472.0
470.0
466.0
463.0
459.0
455.0
452.0
450.0
450.0
451.0
453.0
456.0
459.0
463.0
466.0
470.0
473.0
475.0
474.0
474.0
473.0
471.0
469.0
466.0
463.0
461.0
458.0
455.0
453.0
451.0
449.0
447.0
444.0
441.0
439.0
436.0
433.0
431.0
428.0
426.0
424.0
422.0
422.0
423.0
424.0
424.0
425.0
426.0
427.0
429.0
435.0
443.0
452.0
463.0
472.0
481.0
489.0
494.0
498.0
501.0
502.0
503.0
503.0
501.0
499.0
495.0
492.0
489.0
486.0
483.0
481.0
479.0
476.0
474.0
471.0
468.0
465.0
460.0
456.0
454.0
453.0
452.0
454.0
455.0
457.0
460.0
463.0
466.0
469.0
471.0
473.0
474.0
474.0
474.0
472.0
470.0
467.0
466.0
463.0
461.0
458.0
456.0
453.0
451.0
448.0
446.0
443.0
440.0
438.0
436.0
434.0
433.0
431.0
430.0
429.0
428.0
428.0
428.0
429.0
430.0
432.0
435.0
442.0
450.0
460.0
471.0
481.0
490.0
497.0
502.0
505.0
507.0
508.0
508.0
507.0
505.0
502.0
499.0
496.0
493.0
491.0
488.0
486.0
484.0
482.0
480.0
478.0
474.0
471.0
467.0
464.0
463.0
462.0
462.0
464.0
465.0
467.0
469.0
471.0
473.0
475.0
476.0
477.0
477.0
477.0
477.0
475.0
473.0
471.0
468.0
465.0
463.0
460.0
458.0
456.0
453.0
452.0
450.0
448.0
446.0
444.0
442.0
440.0
439.0
437.0
436.0
434.0
434.0
435.0
434.0
435.0
436.0
437.0
439.0
442.0
449.0
457.0
467.0
476.0
485.0
492.0
498.0
503.0
506.0
507.0
508.0
508.0
507.0
505.0
503.0
500.0
497.0
495.0
492.0
490.0
487.0
486.0
484.0
482.0
480.0
477.0
474.0
471.0
469.0
468.0
468.0
468.0
469.0
471.0
472.0
474.0
476.0
477.0
478.0
478.0
479.0
478.0
477.0
476.0
474.0
472.0
470.0
467.0
465.0
463.0
460.0
457.0
454.0
452.0
450.0
449.0
448.0
447.0
445.0
445.0
444.0
443.0
442.0
441.0
439.0
438.0
437.0
436.0
436.0
436.0
437.0
437.0
438.0
439.0
439.0
442.0
447.0
455.0
464.0
474.0
483.0
490.0
496.0
499.0
502.0
503.0
503.0
502.0
501.0
500.0
498.0
496.0
494.0
492.0
490.0
489.0
487.0
485.0
484.0
482.0
479.0
477.0
474.0
471.0
469.0
468.0
468.0
469.0
470.0
472.0
473.0
475.0
477.0
478.0
478.0
479.0
479.0
479.0
477.0
475.0
474.0
472.0
469.0
467.0
465.0
463.0
460.0
458.0
456.0
454.0
452.0
450.0
448.0
446.0
445.0
444.0
444.0
443.0
443.0
442.0
441.0
441.0
441.0
440.0
440.0
440.0
440.0
439.0
439.0
439.0
438.0
438.0
437.0
436.0
436.0
435.0
435.0
436.0
440.0
447.0
455.0
465.0
475.0
483.0
490.0
495.0
499.0
500.0
502.0
502.0
501.0
499.0
497.0
494.0
491.0
489.0
487.0
485.0
484.0
483.0
482.0
480.0
478.0
475.0
471.0
468.0
465.0
464.0
464.0
465.0
467.0
468.0
470.0
472.0
474.0
475.0
477.0
477.0
477.0
477.0
476.0
473.0
471.0
469.0
467.0
465.0
462.0
459.0
456.0
454.0
452.0
450.0
448.0
447.0
445.0
443.0
442.0
441.0
440.0
439.0
438.0
438.0
438.0
438.0
438.0
438.0
439.0
439.0
439.0
439.0
438.0
437.0
436.0
435.0
434.0
433.0
433.0
432.0
431.0
430.0
430.0
429.0
428.0
428.0
428.0
430.0
433.0
441.0
451.0
462.0
473.0
482.0
489.0
495.0
499.0
502.0
503.0
503.0
502.0
500.0
498.0
496.0
493.0
491.0
488.0
487.0
485.0
484.0
483.0
481.0
479.0
477.0
475.0
471.0
469.0
469.0
468.0
468.0
469.0
469.0
471.0
473.0
474.0
476.0
478.0
479.0
479.0
479.0
479.0
477.0
475.0
473.0
470.0
467.0
465.0
463.0
460.0
458.0
455.0
453.0
451.0
449.0
448.0
447.0
446.0
445.0
444.0
443.0
441.0
440.0
439.0
438.0
437.0
436.0
436.0
436.0
436.0
438.0
438.0
439.0
438.0
437.0
437.0
436.0
434.0
432.0
431.0
429.0
429.0
427.0
426.0
425.0
424.0
423.0
423.0
422.0
422.0
423.0
426.0
432.0
442.0
453.0
465.0
475.0
484.0
491.0
496.0
500.0
502.0
504.0
504.0
503.0
502.0
500.0
497.0
495.0
492.0
490.0
488.0
487.0
486.0
485.0
483.0
482.0
479.0
477.0
474.0
471.0
470.0
469.0
469.0
469.0
470.0
472.0
473.0
474.0
476.0
477.0
478.0
478.0
478.0
477.0
476.0
473.0
471.0
469.0
467.0
464.0
462.0
459.0
456.0
454.0
452.0
450.0
448.0
446.0
445.0
443.0
442.0
441.0
440.0
438.0
437.0
436.0
436.0
435.0
435.0
434.0
434.0
434.0
433.0
434.0
434.0
434.0
434.0
433.0
433.0
432.0
430.0
429.0
427.0
425.0
424.0
423.0
422.0
421.0
419.0
419.0
418.0
417.0
416.0
415.0
415.0
418.0
425.0
435.0
447.0
459.0
470.0
480.0
487.0
493.0
497.0
500.0
501.0
501.0
500.0
498.0
496.0
493.0
490.0
487.0
486.0
483.0
482.0
480.0
479.0
478.0
476.0
473.0
470.0
467.0
463.0
461.0
460.0
460.0
461.0
462.0
465.0
467.0
469.0
471.0
474.0
475.0
476.0
475.0
475.0
473.0
471.0
469.0
467.0
464.0
462.0
459.0
457.0
454.0
452.0
449.0
447.0
446.0
443.0
441.0
440.0
438.0
436.0
435.0
434.0
433.0
432.0
431.0
430.0
430.0
429.0
429.0
429.0
429.0
430.0
430.0
431.0
430.0
429.0
428.0
428.0
427.0
426.0
425.0
424.0
422.0
422.0
420.0
420.0
419.0
419.0
418.0
417.0
419.0
423.0
430.0
439.0
448.0
459.0
468.0
476.0
483.0
488.0
492.0
494.0
494.0
492.0
491.0
488.0
485.0
482.0
479.0
476.0
473.0
472.0
469.0
467.0
465.0
462.0
458.0
454.0
450.0
446.0
444.0
444.0
445.0
446.0
447.0
450.0
453.0
456.0
459.0
462.0
462.0
462.0
462.0
462.0
461.0
459.0
457.0
454.0
452.0
448.0
446.0
443.0
440.0
439.0
437.0
435.0
432.0
430.0
427.0
425.0
423.0
422.0
420.0
418.0
418.0
417.0
417.0
417.0
417.0
417.0
417.0
417.0
417.0
416.0
417.0
416.0
416.0
416.0
415.0
416.0
415.0
414.0
413.0
412.0
411.0
410.0
410.0
409.0
408.0
408.0
409.0
414.0
420.0
430.0
441.0
452.0
461.0
469.0
475.0
480.0
483.0
484.0
485.0
483.0
482.0
480.0
477.0
474.0
472.0
469.0
467.0
465.0
464.0
462.0
460.0
458.0
455.0
452.0
448.0
445.0
443.0
442.0
441.0
442.0
443.0
446.0
448.0
451.0
454.0
456.0
457.0
458.0
457.0
457.0
456.0
454.0
453.0
451.0
449.0
447.0
445.0
444.0
443.0
441.0
439.0
437.0
434.0
432.0
429.0
428.0
426.0
425.0
424.0
423.0
422.0
421.0
421.0
421.0
422.0
422.0
421.0
421.0
420.0
420.0
419.0
419.0
418.0
418.0
417.0
417.0
416.0
416.0
415.0
415.0
413.0
413.0
412.0
411.0
411.0
412.0
415.0
422.0
431.0
441.0
451.0
460.0
467.0
474.0
479.0
481.0
483.0
483.0
483.0
482.0
480.0
478.0
476.0
474.0
471.0
468.0
467.0
465.0
463.0
463.0
461.0
460.0
457.0
454.0
451.0
449.0
447.0
447.0
447.0
448.0
450.0
452.0
454.0
456.0
457.0
459.0
459.0
459.0
459.0
458.0
457.0
455.0
453.0
451.0
449.0
447.0
445.0
443.0
441.0
439.0
437.0
434.0
432.0
431.0
429.0
427.0
426.0
424.0
424.0
423.0
422.0
423.0
423.0
423.0
423.0
423.0
423.0
423.0
422.0
422.0
422.0
421.0
421.0
420.0
419.0
419.0
418.0
418.0
417.0
417.0
416.0
416.0
415.0
416.0
419.0
425.0
433.0
443.0
452.0
460.0
468.0
474.0
478.0
482.0
484.0
484.0
484.0
482.0
480.0
478.0
475.0
473.0
471.0
471.0
470.0
469.0
468.0
466.0
464.0
462.0
458.0
455.0
452.0
449.0
448.0
448.0
449.0
451.0
454.0
456.0
459.0
461.0
463.0
464.0
465.0
465.0
464.0
463.0
461.0
460.0
458.0
456.0
454.0
452.0
449.0
447.0
445.0
442.0
440.0
438.0
436.0
434.0
433.0
432.0
430.0
429.0
429.0
429.0
429.0
428.0
428.0
428.0
427.0
427.0
427.0
426.0
426.0
426.0
425.0
425.0
425.0
425.0
424.0
425.0
425.0
424.0
424.0
424.0
424.0
425.0
429.0
435.0
442.0
451.0
459.0
466.0
473.0
477.0
482.0
485.0
487.0
488.0
487.0
486.0
484.0
482.0
479.0
477.0
474.0
472.0
470.0
468.0
466.0
464.0
462.0
459.0
455.0
452.0
450.0
449.0
448.0
450.0
451.0
453.0
455.0
458.0
461.0
464.0
465.0
467.0
468.0
467.0
467.0
465.0
463.0
461.0
459.0
456.0
454.0
452.0
449.0
447.0
444.0
442.0
440.0
438.0
437.0
436.0
434.0
434.0
433.0
432.0
431.0
431.0
430.0
430.0
429.0
430.0
429.0
429.0
429.0
429.0
429.0
429.0
429.0
429.0
428.0
428.0
428.0
427.0
427.0
428.0
430.0
434.0
440.0
449.0
458.0
467.0
474.0
481.0
487.0
491.0
493.0
495.0
495.0
494.0
492.0
491.0
488.0
485.0
483.0
481.0
479.0
478.0
477.0
476.0
475.0
472.0
470.0
467.0
464.0
461.0
460.0
459.0
459.0
460.0
462.0
464.0
467.0
469.0
471.0
473.0
475.0
475.0
475.0
474.0
473.0
471.0
469.0
467.0
465.0
463.0
460.0
458.0
455.0
453.0
451.0
449.0
447.0
445.0
444.0
443.0
441.0
439.0
439.0
438.0
438.0
438.0
438.0
438.0
438.0
437.0
437.0
436.0
436.0
435.0
435.0
435.0
433.0
434.0
433.0
433.0
433.0
433.0
433.0
436.0
439.0
446.0
453.0
462.0
471.0
479.0
487.0
493.0
498.0
501.0
504.0
505.0
505.0
503.0
502.0
500.0
498.0
497.0
495.0
494.0
493.0
491.0
490.0
488.0
487.0
485.0
482.0
479.0
475.0
473.0
473.0
472.0
473.0
474.0
476.0
478.0
480.0
481.0
483.0
484.0
484.0
484.0
484.0
482.0
481.0
479.0
478.0
477.0
474.0
472.0
470.0
467.0
464.0
462.0
459.0
457.0
456.0
454.0
452.0
451.0
451.0
449.0
449.0
448.0
449.0
448.0
448.0
448.0
448.0
447.0
447.0
446.0
445.0
444.0
444.0
443.0
442.0
442.0
442.0
442.0
441.0
440.0
439.0
440.0
442.0
445.0
451.0
461.0
470.0
479.0
486.0
494.0
499.0
504.0
508.0
510.0
511.0
511.0
511.0
510.0
508.0
505.0
503.0
501.0
499.0
497.0
496.0
495.0
493.0
492.0
488.0
485.0
481.0
479.0
477.0
475.0
475.0
475.0
476.0
478.0
479.0
481.0
483.0
484.0
484.0
484.0
484.0
484.0
483.0
481.0
479.0
477.0
474.0
471.0
468.0
466.0
464.0
461.0
459.0
457.0
455.0
454.0
452.0
451.0
449.0
448.0
447.0
446.0
446.0
445.0
446.0
446.0
446.0
445.0
445.0
444.0
443.0
442.0
441.0
441.0
440.0
439.0
439.0
438.0
437.0
437.0
437.0
436.0
435.0
435.0
435.0
437.0
441.0
447.0
455.0
465.0
475.0
483.0
490.0
497.0
503.0
506.0
509.0
511.0
512.0
512.0
510.0
507.0
504.0
501.0
499.0
496.0
495.0
493.0
492.0
490.0
488.0
486.0
482.0
480.0
477.0
475.0
474.0
473.0
475.0
476.0
478.0
480.0
482.0
483.0
485.0
485.0
486.0
486.0
485.0
484.0
483.0
480.0
477.0
475.0
472.0
469.0
466.0
464.0
462.0
459.0
457.0
455.0
454.0
452.0
451.0
450.0
449.0
448.0
448.0
448.0
447.0
447.0
447.0
446.0
446.0
446.0
445.0
445.0
445.0
444.0
444.0
443.0
443.0
442.0
441.0
441.0
440.0
440.0
439.0
440.0
441.0
446.0
452.0
461.0
470.0
479.0
487.0
494.0
501.0
505.0
509.0
512.0
514.0
514.0
513.0
511.0
509.0
506.0
503.0
500.0
498.0
497.0
495.0
493.0
490.0
487.0
483.0
479.0
476.0
472.0
470.0
470.0
470.0
471.0
473.0
475.0
477.0
479.0
481.0
482.0
483.0
483.0
482.0
481.0
479.0
477.0
475.0
473.0
471.0
468.0
466.0
464.0
461.0
458.0
455.0
452.0
449.0
447.0
446.0
444.0
443.0
442.0
441.0
441.0
441.0
440.0
440.0
440.0
440.0
440.0
439.0
438.0
438.0
437.0
436.0
436.0
435.0
434.0
433.0
433.0
433.0
432.0
431.0
431.0
432.0
434.0
439.0
447.0
456.0
465.0
474.0
483.0
490.0
496.0
501.0
504.0
505.0
506.0
507.0
505.0
504.0
502.0
500.0
497.0
495.0
493.0
491.0
489.0
488.0
486.0
483.0
480.0
477.0
474.0
472.0
470.0
470.0
470.0
471.0
472.0
473.0
475.0
477.0
478.0
479.0
480.0
480.0
480.0
479.0
477.0
475.0
473.0
470.0
467.0
465.0
462.0
461.0
459.0
456.0
454.0
453.0
451.0
449.0
446.0
444.0
443.0
442.0
441.0
441.0
440.0
440.0
440.0
439.0
439.0
438.0
438.0
437.0
437.0
436.0
436.0
435.0
434.0
433.0
432.0
431.0
429.0
428.0
427.0
427.0
427.0
430.0
434.0
441.0
450.0
459.0
469.0
478.0
485.0
492.0
498.0
502.0
505.0
505.0
504.0
502.0
499.0
497.0
494.0
492.0
490.0
488.0
487.0
484.0
482.0
480.0
478.0
475.0
472.0
470.0
467.0
465.0
464.0
464.0
464.0
465.0
467.0
469.0
471.0
474.0
476.0
477.0
477.0
477.0
476.0
474.0
472.0
469.0
466.0
463.0
460.0
457.0
455.0
452.0
449.0
447.0
446.0
444.0
442.0
440.0
438.0
436.0
435.0
435.0
435.0
434.0
433.0
433.0
433.0
433.0
433.0
433.0
432.0
432.0
431.0
430.0
429.0
428.0
427.0
427.0
426.0
425.0
426.0
427.0
429.0
434.0
441.0
449.0
459.0
467.0
475.0
483.0
488.0
493.0
497.0
499.0
501.0
501.0
501.0
499.0
497.0
494.0
492.0
489.0
486.0
484.0
482.0
479.0
477.0
474.0
471.0
467.0
464.0
460.0
459.0
458.0
458.0
459.0
460.0
462.0
464.0
465.0
467.0
468.0
468.0
469.0
469.0
468.0
467.0
466.0
464.0
462.0
459.0
455.0
452.0
449.0
446.0
443.0
441.0
438.0
436.0
435.0
433.0
432.0
431.0
430.0
430.0
428.0
427.0
426.0
425.0
424.0
423.0
423.0
422.0
422.0
422.0
422.0
423.0
423.0
422.0
422.0
423.0
426.0
431.0
437.0
445.0
452.0
460.0
467.0
473.0
478.0
481.0
483.0
484.0
484.0
484.0
482.0
480.0
477.0
473.0
471.0
469.0
467.0
465.0
463.0
461.0
458.0
454.0
450.0
447.0
443.0
442.0
441.0
441.0
442.0
443.0
445.0
449.0
452.0
457.0
461.0
463.0
461.0
459.0
456.0
455.0
454.0
451.0
449.0
447.0
446.0
443.0
440.0
438.0
436.0
434.0
430.0
429.0
427.0
425.0
423.0
421.0
419.0
419.0
418.0
418.0
418.0
418.0
418.0
418.0
418.0
418.0
419.0
419.0
419.0
419.0
420.0
424.0
428.0
436.0
445.0
454.0
464.0
472.0
479.0
485.0
488.0
490.0
490.0
490.0
489.0
486.0
484.0
482.0
480.0
477.0
475.0
474.0
472.0
470.0
467.0
465.0
462.0
458.0
454.0
451.0
448.0
447.0
448.0
449.0
451.0
454.0
457.0
459.0
462.0
464.0
465.0
467.0
468.0
467.0
466.0
464.0
462.0
459.0
457.0
454.0
452.0
449.0
446.0
444.0
442.0
439.0
438.0
436.0
435.0
433.0
432.0
431.0
430.0
429.0
428.0
427.0
427.0
426.0
425.0
425.0
425.0
425.0
425.0
426.0
428.0
429.0
432.0
437.0
444.0
453.0
462.0
471.0
480.0
487.0
492.0
497.0
500.0
501.0
502.0
501.0
501.0
498.0
496.0
493.0
491.0
489.0
486.0
484.0
482.0
480.0
478.0
475.0
472.0
468.0
465.0
463.0
461.0
461.0
461.0
463.0
465.0
467.0
469.0
471.0
473.0
474.0
474.0
475.0
474.0
473.0
472.0
471.0
469.0
468.0
466.0
463.0
460.0
458.0
454.0
452.0
449.0
447.0
445.0
443.0
442.0
441.0
440.0
440.0
439.0
438.0
437.0
436.0
436.0
435.0
434.0
434.0
433.0
433.0
433.0
434.0
434.0
434.0
434.0
436.0
438.0
443.0
450.0
460.0
470.0
479.0
486.0
493.0
498.0
503.0
505.0
507.0
507.0
506.0
505.0
504.0
501.0
499.0
496.0
494.0
491.0
489.0
487.0
486.0
485.0
482.0
479.0
476.0
474.0
470.0
469.0
469.0
469.0
471.0
473.0
475.0
476.0
478.0
479.0
480.0
480.0
480.0
480.0
479.0
479.0
477.0
475.0
473.0
471.0
467.0
464.0
462.0
459.0
456.0
454.0
451.0
449.0
448.0
446.0
446.0
445.0
443.0
442.0
442.0
441.0
441.0
441.0
440.0
439.0
439.0
439.0
438.0
437.0
436.0
435.0
435.0
435.0
436.0
435.0
436.0
437.0
439.0
442.0
449.0
458.0
467.0
476.0
484.0
491.0
497.0
502.0
507.0
510.0
512.0
512.0
511.0
509.0
507.0
505.0
503.0
500.0
497.0
496.0
495.0
493.0
492.0
490.0
488.0
485.0
481.0
478.0
476.0
475.0
474.0
475.0
476.0
478.0
481.0
482.0
485.0
487.0
488.0
488.0
488.0
487.0
485.0
483.0
481.0
477.0
475.0
473.0
472.0
470.0
468.0
465.0
463.0
461.0
459.0
457.0
455.0
452.0
451.0
449.0
449.0
447.0
447.0
448.0
448.0
448.0
449.0
448.0
448.0
447.0
446.0
446.0
445.0
443.0
443.0
442.0
442.0
442.0
442.0
442.0
442.0
441.0
442.0
444.0
448.0
455.0
464.0
473.0
482.0
490.0
497.0
504.0
509.0
513.0
515.0
516.0
515.0
513.0
510.0
506.0
503.0
500.0
497.0
494.0
492.0
490.0
488.0
485.0
482.0
479.0
475.0
471.0
469.0
466.0
466.0
466.0
467.0
469.0
471.0
473.0
476.0
478.0
480.0
480.0
481.0
480.0
478.0
476.0
472.0
469.0
466.0
463.0
461.0
458.0
456.0
453.0
451.0
449.0
447.0
445.0
443.0
441.0
439.0
438.0
437.0
436.0
436.0
436.0
436.0
436.0
436.0
436.0
437.0
437.0
438.0
437.0
437.0
437.0
436.0
434.0
433.0
432.0
432.0
432.0
432.0
432.0
433.0
433.0
435.0
436.0
442.0
449.0
458.0
468.0
477.0
486.0
493.0
499.0
504.0
508.0
511.0
511.0
511.0
509.0
507.0
505.0
502.0
499.0
496.0
493.0
491.0
489.0
487.0
484.0
480.0
476.0
472.0
468.0
464.0
463.0
464.0
464.0
466.0
469.0
472.0
474.0
476.0
479.0
481.0
482.0
482.0
481.0
481.0
479.0
477.0
474.0
472.0
469.0
465.0
462.0
460.0
458.0
455.0
452.0
450.0
447.0
445.0
443.0
441.0
439.0
437.0
436.0
435.0
435.0
436.0
436.0
437.0
437.0
436.0
436.0
436.0
435.0
435.0
435.0
434.0
434.0
433.0
432.0
431.0
431.0
431.0
430.0
430.0
431.0
432.0
436.0
444.0
453.0
464.0
474.0
483.0
491.0
498.0
503.0
506.0
508.0
509.0
509.0
508.0
506.0
503.0
500.0
497.0
494.0
492.0
489.0
487.0
485.0
482.0
480.0
477.0
473.0
470.0
467.0
465.0
464.0
464.0
465.0
468.0
470.0
473.0
475.0
477.0
479.0
481.0
482.0
482.0
482.0
480.0
478.0
477.0
475.0
473.0
470.0
467.0
464.0
462.0
459.0
455.0
452.0
449.0
447.0
445.0
443.0
442.0
440.0
439.0
439.0
438.0
438.0
438.0
437.0
437.0
437.0
437.0
437.0
436.0
436.0
435.0
435.0
435.0
434.0
434.0
434.0
434.0
433.0
433.0
433.0
434.0
436.0
443.0
452.0
462.0
473.0
483.0
492.0
499.0
504.0
509.0
511.0
512.0
512.0
512.0
511.0
509.0
507.0
504.0
502.0
499.0
496.0
493.0
491.0
489.0
486.0
483.0
480.0
476.0
473.0
470.0
468.0
468.0
469.0
470.0
472.0
474.0
476.0
479.0
481.0
483.0
484.0
485.0
485.0
484.0
483.0
481.0
479.0
476.0
473.0
470.0
467.0
464.0
462.0
459.0
457.0
455.0
453.0
452.0
450.0
447.0
445.0
443.0
441.0
440.0
439.0
439.0
439.0
439.0
440.0
441.0
441.0
440.0
440.0
439.0
438.0
436.0
435.0
434.0
435.0
434.0
434.0
435.0
435.0
436.0
437.0
442.0
449.0
458.0
468.0
477.0
485.0
492.0
498.0
503.0
506.0
508.0
509.0
508.0
507.0
505.0
503.0
499.0
497.0
493.0
491.0
489.0
487.0
484.0
481.0
479.0
475.0
472.0
468.0
465.0
464.0
463.0
463.0
464.0
466.0
469.0
471.0
474.0
476.0
477.0
478.0
479.0
479.0
478.0
477.0
475.0
474.0
472.0
470.0
468.0
465.0
462.0
459.0
456.0
453.0
450.0
448.0
445.0
443.0
442.0
441.0
440.0
439.0
438.0
437.0
437.0
437.0
437.0
436.0
436.0
436.0
436.0
436.0
435.0
435.0
435.0
435.0
435.0
435.0
434.0
435.0
434.0
436.0
436.0
439.0
445.0
454.0
462.0
472.0
479.0
486.0
491.0
496.0
498.0
501.0
501.0
501.0
499.0
498.0
494.0
493.0
488.0
486.0
482.0
479.0
476.0
474.0
471.0
468.0
465.0
462.0
457.0
455.0
452.0
451.0
451.0
453.0
455.0
459.0
462.0
466.0
469.0
472.0
474.0
476.0
475.0
475.0
473.0
471.0
468.0
466.0
463.0
461.0
458.0
457.0
453.0
451.0
449.0
448.0
445.0
444.0
441.0
440.0
438.0
438.0
436.0
436.0
435.0
435.0
434.0
434.0
434.0
434.0
433.0
433.0
434.0
434.0
434.0
434.0
433.0
434.0
433.0
434.0
434.0
434.0
435.0
438.0
445.0
454.0
463.0
473.0
481.0
488.0
495.0
499.0
502.0
504.0
505.0
504.0
503.0
501.0
499.0
496.0
494.0
491.0
489.0
487.0
484.0
481.0
478.0
476.0
473.0
469.0
466.0
463.0
461.0
461.0
462.0
463.0
464.0
466.0
469.0
471.0
474.0
477.0
478.0
480.0
479.0
479.0
479.0
478.0
476.0
473.0
471.0
467.0
465.0
463.0
460.0
458.0
456.0
454.0
452.0
450.0
447.0
445.0
443.0
442.0
439.0
439.0
438.0
438.0
439.0
439.0
439.0
440.0
441.0
440.0
440.0
439.0
438.0
438.0
438.0
438.0
438.0
438.0
438.0
439.0
439.0
440.0
442.0
447.0
455.0
465.0
475.0
484.0
491.0
498.0
503.0
507.0
509.0
511.0
511.0
511.0
509.0
508.0
505.0
502.0
499.0
496.0
494.0
492.0
489.0
487.0
486.0
483.0
480.0
477.0
474.0
472.0
471.0
471.0
471.0
473.0
475.0
476.0
479.0
480.0
482.0
483.0
485.0
485.0
484.0
484.0
483.0
482.0
480.0
478.0
475.0
473.0
470.0
467.0
463.0
461.0
458.0
456.0
454.0
453.0
451.0
450.0
449.0
448.0
447.0
447.0
447.0
446.0
447.0
447.0
446.0
446.0
446.0
446.0
445.0
445.0
444.0
444.0
444.0
444.0
444.0
444.0
444.0
443.0
442.0
443.0
445.0
448.0
454.0
463.0
473.0
483.0
491.0
499.0
505.0
510.0
513.0
516.0
517.0
516.0
515.0
513.0
510.0
509.0
506.0
503.0
501.0
499.0
498.0
496.0
495.0
493.0
491.0
487.0
485.0
481.0
479.0
479.0
480.0
481.0
483.0
485.0
487.0
490.0
492.0
494.0
495.0
496.0
497.0
497.0
496.0
495.0
492.0
490.0
489.0
486.0
483.0
481.0
479.0
477.0
474.0
471.0
470.0
468.0
467.0
465.0
463.0
462.0
462.0
461.0
460.0
460.0
460.0
459.0
459.0
459.0
459.0
459.0
459.0
458.0
458.0
457.0
458.0
458.0
457.0
456.0
456.0
455.0
454.0
453.0
452.0
452.0
453.0
455.0
462.0
470.0
481.0
491.0
499.0
506.0
512.0
516.0
519.0
520.0
521.0
521.0
521.0
518.0
517.0
514.0
512.0
510.0
508.0
505.0
502.0
499.0
495.0
491.0
486.0
482.0
478.0
476.0
476.0
476.0
479.0
481.0
483.0
485.0
487.0
488.0
490.0
491.0
491.0
492.0
492.0
492.0
493.0
492.0
492.0
491.0
488.0
485.0
481.0
477.0
472.0
468.0
466.0
464.0
462.0
460.0
457.0
457.0
455.0
453.0
453.0
452.0
452.0
451.0
450.0
450.0
450.0
449.0
449.0
450.0
450.0
451.0
450.0
450.0
450.0
449.0
448.0
448.0
446.0
445.0
445.0
445.0
446.0
447.0
452.0
458.0
467.0
477.0
486.0
495.0
503.0
509.0
514.0
517.0
520.0
521.0
521.0
521.0
520.0
517.0
515.0
510.0
507.0
503.0
500.0
497.0
494.0
492.0
490.0
487.0
484.0
480.0
477.0
475.0
474.0
474.0
475.0
477.0
480.0
483.0
487.0
489.0
491.0
493.0
494.0
494.0
493.0
493.0
491.0
489.0
487.0
483.0
480.0
478.0
474.0
471.0
470.0
468.0
465.0
463.0
461.0
458.0
456.0
454.0
451.0
450.0
449.0
449.0
449.0
449.0
449.0
449.0
449.0
449.0
448.0
447.0
447.0
447.0
447.0
446.0
445.0
443.0
442.0
441.0
441.0
440.0
439.0
439.0
440.0
442.0
446.0
453.0
463.0
473.0
482.0
491.0
498.0
506.0
512.0
517.0
521.0
524.0
524.0
524.0
522.0
520.0
517.0
512.0
509.0
505.0
502.0
500.0
498.0
496.0
494.0
491.0
488.0
485.0
482.0
479.0
478.0
477.0
477.0
477.0
479.0
482.0
484.0
486.0
488.0
489.0
490.0
491.0
490.0
489.0
488.0
486.0
484.0
481.0
478.0
476.0
473.0
470.0
468.0
464.0
461.0
459.0
457.0
456.0
455.0
454.0
454.0
452.0
451.0
451.0
450.0
449.0
448.0
448.0
448.0
447.0
447.0
447.0
447.0
447.0
446.0
445.0
444.0
443.0
442.0
441.0
440.0
438.0
437.0
437.0
436.0
436.0
437.0
439.0
444.0
452.0
462.0
473.0
483.0
492.0
500.0
507.0
512.0
517.0
519.0
520.0
520.0
519.0
517.0
515.0
512.0
508.0
503.0
500.0
498.0
495.0
493.0
490.0
487.0
484.0
480.0
475.0
472.0
469.0
469.0
469.0
470.0
471.0
474.0
477.0
479.0
482.0
484.0
485.0
484.0
483.0
481.0
479.0
477.0
475.0
473.0
470.0
468.0
465.0
463.0
460.0
457.0
453.0
450.0
446.0
443.0
440.0
439.0
437.0
436.0
435.0
436.0
436.0
437.0
436.0
436.0
435.0
435.0
434.0
434.0
433.0
433.0
434.0
434.0
433.0
432.0
432.0
431.0
430.0
429.0
428.0
428.0
428.0
429.0
432.0
438.0
445.0
455.0
463.0
472.0
480.0
487.0
493.0
498.0
501.0
502.0
503.0
503.0
500.0
497.0
494.0
490.0
487.0
483.0
479.0
477.0
474.0
472.0
469.0
466.0
462.0
458.0
453.0
451.0
450.0
450.0
451.0
454.0
457.0
460.0
463.0
466.0
469.0
471.0
471.0
472.0
471.0
470.0
468.0
466.0
464.0
462.0
459.0
457.0
454.0
452.0
448.0
446.0
444.0
442.0
440.0
439.0
438.0
436.0
435.0
434.0
432.0
431.0
430.0
430.0
430.0
431.0
431.0
432.0
431.0
432.0
431.0
431.0
431.0
430.0
429.0
428.0
427.0
426.0
426.0
425.0
427.0
429.0
432.0
438.0
448.0
458.0
466.0
475.0
482.0
489.0
495.0
501.0
504.0
507.0
508.0
508.0
506.0
503.0
499.0
495.0
491.0
488.0
485.0
482.0
480.0
478.0
476.0
473.0
470.0
467.0
464.0
463.0
462.0
462.0
462.0
462.0
464.0
466.0
469.0
471.0
474.0
475.0
475.0
476.0
476.0
474.0
473.0
471.0
468.0
466.0
464.0
461.0
459.0
455.0
451.0
447.0
444.0
441.0
439.0
437.0
435.0
434.0
433.0
432.0
433.0
432.0
431.0
430.0
430.0
429.0
428.0
428.0
427.0
427.0
427.0
428.0
428.0
428.0
428.0
428.0
428.0
426.0
424.0
422.0
421.0
422.0
426.0
432.0
441.0
451.0
461.0
470.0
479.0
486.0
492.0
496.0
499.0
501.0
503.0
502.0
501.0
499.0
496.0
492.0
489.0
485.0
482.0
479.0
477.0
474.0
473.0
471.0
468.0
464.0
461.0
460.0
459.0
459.0
459.0
460.0
461.0
462.0
464.0
466.0
468.0
470.0
472.0
472.0
472.0
470.0
468.0
466.0
463.0
461.0
459.0
457.0
454.0
451.0
449.0
446.0
443.0
441.0
438.0
435.0
433.0
432.0
431.0
431.0
430.0
430.0
430.0
430.0
430.0
430.0
430.0
430.0
429.0
429.0
428.0
428.0
427.0
426.0
426.0
425.0
426.0
425.0
424.0
424.0
423.0
422.0
421.0
422.0
425.0
429.0
437.0
445.0
455.0
464.0
471.0
478.0
483.0
487.0
490.0
493.0
494.0
494.0
492.0
490.0
487.0
483.0
479.0
476.0
473.0
470.0
468.0
467.0
464.0
461.0
458.0
454.0
451.0
449.0
448.0
448.0
448.0
449.0
451.0
453.0
455.0
457.0
459.0
461.0
462.0
463.0
462.0
461.0
460.0
458.0
455.0
452.0
449.0
447.0
444.0
442.0
440.0
437.0
435.0
434.0
432.0
430.0
428.0
426.0
426.0
424.0
425.0
425.0
424.0
424.0
423.0
423.0
422.0
421.0
421.0
420.0
421.0
421.0
421.0
421.0
421.0
421.0
420.0
420.0
419.0
418.0
417.0
417.0
416.0
416.0
417.0
421.0
426.0
435.0
443.0
453.0
462.0
470.0
476.0
480.0
483.0
485.0
487.0
488.0
488.0
487.0
485.0
482.0
479.0
474.0
470.0
466.0
463.0
460.0
458.0
455.0
452.0
449.0
445.0
442.0
441.0
439.0
438.0
439.0
440.0
441.0
442.0
445.0
448.0
450.0
451.0
452.0
452.0
451.0
450.0
448.0
445.0
442.0
440.0
437.0
435.0
432.0
429.0
428.0
425.0
423.0
421.0
418.0
415.0
413.0
411.0
410.0
409.0
409.0
408.0
410.0
409.0
409.0
409.0
409.0
408.0
408.0
408.0
407.0
406.0
406.0
405.0
405.0
406.0
406.0
406.0
405.0
405.0
404.0
404.0
405.0
407.0
410.0
417.0
425.0
432.0
439.0
446.0
451.0
457.0
461.0
463.0
464.0
464.0
463.0
461.0
460.0
456.0
454.0
450.0
447.0
444.0
441.0
437.0
434.0
430.0
426.0
423.0
421.0
418.0
418.0
417.0
419.0
421.0
424.0
427.0
431.0
434.0
436.0
438.0
439.0
439.0
438.0
437.0
436.0
435.0
432.0
430.0
427.0
424.0
422.0
420.0
418.0
416.0
414.0
411.0
410.0
408.0
406.0
404.0
403.0
401.0
401.0
400.0
401.0
401.0
400.0
400.0
401.0
401.0
401.0
400.0
400.0
399.0
398.0
396.0
397.0
396.0
398.0
398.0
398.0
399.0
400.0
403.0
408.0
413.0
420.0
428.0
436.0
442.0
448.0
453.0
457.0
460.0
462.0
463.0
462.0
460.0
457.0
454.0
451.0
449.0
447.0
445.0
443.0
441.0
439.0
437.0
435.0
432.0
431.0
429.0
429.0
429.0
430.0
431.0
434.0
436.0
438.0
440.0
442.0
444.0
446.0
447.0
448.0
449.0
449.0
449.0
448.0
447.0
444.0
441.0
438.0
435.0
432.0
430.0
429.0
427.0
427.0
424.0
423.0
422.0
422.0
421.0
419.0
418.0
417.0
417.0
417.0
418.0
419.0
419.0
420.0
420.0
420.0
419.0
419.0
418.0
418.0
418.0
418.0
418.0
418.0
419.0
420.0
423.0
428.0
435.0
443.0
452.0
460.0
467.0
474.0
479.0
484.0
486.0
488.0
489.0
489.0
487.0
485.0
482.0
479.0
475.0
473.0
470.0
468.0
466.0
465.0
463.0
462.0
460.0
457.0
455.0
452.0
450.0
450.0
450.0
452.0
454.0
457.0
459.0
461.0
462.0
464.0
464.0
464.0
463.0
463.0
462.0
461.0
460.0
459.0
457.0
455.0
453.0
450.0
448.0
445.0
443.0
442.0
439.0
438.0
436.0
436.0
435.0
435.0
434.0
433.0
434.0
433.0
432.0
433.0
432.0
432.0
431.0
431.0
431.0
430.0
430.0
430.0
430.0
430.0
431.0
431.0
431.0
432.0
434.0
438.0
444.0
451.0
459.0
467.0
475.0
482.0
488.0
492.0
495.0
497.0
497.0
497.0
496.0
494.0
492.0
488.0
485.0
482.0
480.0
479.0
479.0
477.0
476.0
474.0
472.0
469.0
466.0
464.0
464.0
464.0
464.0
465.0
466.0
468.0
469.0
472.0
473.0
475.0
476.0
478.0
478.0
478.0
477.0
476.0
474.0
472.0
469.0
467.0
465.0
463.0
461.0
458.0
456.0
454.0
453.0
452.0
450.0
449.0
447.0
446.0
445.0
445.0
445.0
445.0
445.0
445.0
446.0
446.0
446.0
446.0
445.0
444.0
443.0
441.0
440.0
440.0
440.0
440.0
441.0
441.0
442.0
443.0
447.0
452.0
459.0
467.0
474.0
481.0
487.0
494.0
498.0
502.0
505.0
505.0
504.0
503.0
500.0
497.0
494.0
490.0
486.0
483.0
480.0
479.0
478.0
476.0
474.0
472.0
469.0
466.0
464.0
462.0
461.0
462.0
462.0
463.0
465.0
467.0
469.0
470.0
471.0
472.0
472.0
471.0
470.0
469.0
467.0
466.0
463.0
462.0
459.0
456.0
453.0
450.0
447.0
445.0
443.0
440.0
438.0
438.0
437.0
437.0
437.0
436.0
435.0
434.0
432.0
431.0
431.0
430.0
430.0
430.0
431.0
430.0
430.0
429.0
429.0
427.0
426.0
426.0
426.0
426.0
426.0
426.0
426.0
426.0
429.0
434.0
441.0
447.0
455.0
463.0
469.0
475.0
480.0
483.0
485.0
485.0
484.0
483.0
481.0
477.0
475.0
472.0
469.0
466.0
464.0
463.0
462.0
460.0
457.0
455.0
452.0
449.0
446.0
445.0
444.0
445.0
446.0
447.0
450.0
453.0
455.0
456.0
457.0
457.0
457.0
456.0
455.0
454.0
453.0
451.0
450.0
449.0
446.0
445.0
443.0
440.0
438.0
436.0
434.0
433.0
431.0
431.0
431.0
430.0
429.0
429.0
429.0
429.0
429.0
429.0
430.0
430.0
430.0
431.0
431.0
431.0
432.0
432.0
431.0
431.0
430.0
430.0
430.0
430.0
429.0
429.0
429.0
430.0
431.0
436.0
441.0
449.0
457.0
466.0
473.0
479.0
485.0
490.0
494.0
497.0
498.0
497.0
496.0
493.0
489.0
486.0
482.0
479.0
476.0
475.0
474.0
473.0
472.0
470.0
468.0
466.0
463.0
461.0
459.0
458.0
459.0
460.0
461.0
464.0
466.0
468.0
469.0
470.0
471.0
471.0
469.0
467.0
466.0
464.0
463.0
462.0
460.0
459.0
458.0
455.0
453.0
450.0
447.0
445.0
443.0
442.0
441.0
440.0
439.0
439.0
438.0
437.0
437.0
437.0
437.0
437.0
438.0
438.0
439.0
440.0
439.0
438.0
438.0
438.0
436.0
435.0
435.0
433.0
433.0
433.0
433.0
433.0
433.0
434.0
434.0
434.0
438.0
443.0
450.0
460.0
469.0
479.0
488.0
495.0
501.0
506.0
509.0
510.0
509.0
507.0
504.0
501.0
498.0
496.0
494.0
492.0
491.0
491.0
490.0
489.0
487.0
485.0
483.0
479.0
476.0
474.0
473.0
473.0
474.0
475.0
477.0
478.0
480.0
482.0
483.0
484.0
484.0
483.0
482.0
481.0
480.0
478.0
476.0
473.0
471.0
468.0
465.0
461.0
458.0
456.0
454.0
453.0
452.0
452.0
451.0
450.0
448.0
447.0
445.0
443.0
443.0
442.0
441.0
441.0
441.0
441.0
442.0
442.0
442.0
442.0
440.0
439.0
438.0
436.0
436.0
435.0
434.0
435.0
435.0
433.0
431.0
430.0
429.0
427.0
426.0
425.0
426.0
430.0
437.0
447.0
456.0
466.0
476.0
484.0
491.0
495.0
498.0
499.0
499.0
498.0
495.0
492.0
488.0
485.0
481.0
478.0
476.0
472.0
469.0
467.0
464.0
461.0
458.0
454.0
450.0
448.0
446.0
445.0
446.0
447.0
448.0
450.0
453.0
455.0
458.0
461.0
462.0
463.0
462.0
461.0
460.0
458.0
456.0
454.0
451.0
449.0
447.0
445.0
443.0
440.0
439.0
437.0
435.0
432.0
430.0
429.0
428.0
427.0
426.0
426.0
426.0
426.0
426.0
426.0
425.0
423.0
422.0
422.0
421.0
422.0
422.0
423.0
424.0
424.0
423.0
423.0
421.0
420.0
419.0
418.0
416.0
416.0
415.0
416.0
416.0
416.0
416.0
417.0
419.0
422.0
430.0
440.0
451.0
461.0
471.0
481.0
490.0
497.0
502.0
505.0
506.0
505.0
503.0
500.0
497.0
494.0
491.0
487.0
485.0
483.0
481.0
479.0
477.0
474.0
471.0
469.0
466.0
463.0
462.0
462.0
463.0
463.0
465.0
468.0
469.0
473.0
475.0
477.0
479.0
480.0
481.0
481.0
480.0
478.0
476.0
474.0
471.0
469.0
465.0
463.0
461.0
459.0
456.0
455.0
453.0
451.0
449.0
447.0
446.0
445.0
444.0
444.0
445.0
444.0
444.0
444.0
445.0
444.0
444.0
444.0
444.0
444.0
443.0
443.0
443.0
444.0
443.0
443.0
443.0
441.0
440.0
438.0
437.0
436.0
435.0
434.0
432.0
433.0
431.0
432.0
433.0
437.0
443.0
453.0
463.0
475.0
485.0
495.0
502.0
508.0
514.0
518.0
520.0
522.0
522.0
520.0
517.0
513.0
509.0
505.0
501.0
499.0
496.0
493.0
490.0
488.0
485.0
482.0
479.0
476.0
474.0
473.0
473.0
473.0
474.0
475.0
477.0
478.0
479.0
480.0
481.0
483.0
483.0
484.0
484.0
483.0
483.0
482.0
480.0
477.0
475.0
472.0
469.0
465.0
463.0
460.0
457.0
455.0
454.0
454.0
453.0
452.0
452.0
452.0
452.0
451.0
450.0
448.0
448.0
448.0
447.0
447.0
447.0
447.0
447.0
446.0
446.0
445.0
444.0
444.0
443.0
443.0
442.0
443.0
442.0
441.0
440.0
438.0
437.0
436.0
434.0
433.0
433.0
434.0
436.0
444.0
454.0
465.0
475.0
487.0
497.0
503.0
510.0
514.0
517.0
518.0
517.0
516.0
514.0
510.0
507.0
503.0
498.0
494.0
490.0
486.0
482.0
479.0
476.0
473.0
469.0
466.0
461.0
460.0
459.0
458.0
459.0
461.0
463.0
465.0
467.0
470.0
473.0
475.0
476.0
477.0
476.0
476.0
474.0
472.0
470.0
468.0
466.0
463.0
460.0
457.0
454.0
451.0
449.0
446.0
443.0
441.0
439.0
437.0
436.0
435.0
435.0
433.0
433.0
432.0
432.0
432.0
432.0
432.0
431.0
431.0
431.0
432.0
432.0
432.0
431.0
432.0
431.0
429.0
429.0
428.0
428.0
428.0
426.0
426.0
426.0
427.0
430.0
437.0
444.0
453.0
463.0
473.0
482.0
489.0
495.0
499.0
502.0
503.0
503.0
502.0
500.0
496.0
493.0
489.0
484.0
480.0
476.0
474.0
471.0
469.0
465.0
463.0
459.0
455.0
452.0
450.0
449.0
449.0
450.0
453.0
457.0
462.0
465.0
469.0
473.0
475.0
476.0
477.0
476.0
475.0
474.0
472.0
471.0
469.0
467.0
465.0
461.0
458.0
455.0
451.0
449.0
446.0
445.0
444.0
443.0
442.0
442.0
442.0
441.0
441.0
439.0
438.0
437.0
436.0
436.0
437.0
438.0
439.0
440.0
440.0
440.0
441.0
440.0
439.0
438.0
438.0
438.0
438.0
440.0
442.0
447.0
455.0
465.0
476.0
485.0
494.0
503.0
508.0
514.0
518.0
521.0
522.0
522.0
521.0
518.0
515.0
512.0
508.0
504.0
500.0
497.0
494.0
492.0
490.0
487.0
483.0
479.0
475.0
472.0
469.0
467.0
466.0
468.0
470.0
473.0
476.0
479.0
482.0
485.0
486.0
487.0
486.0
485.0
482.0
481.0
479.0
477.0
475.0
473.0
470.0
467.0
464.0
461.0
458.0
454.0
452.0
448.0
448.0
446.0
445.0
444.0
444.0
443.0
442.0
441.0
440.0
440.0
440.0
440.0
440.0
440.0
440.0
440.0
440.0
440.0
440.0
441.0
440.0
439.0
439.0
440.0
443.0
448.0
456.0
464.0
475.0
486.0
496.0
505.0
514.0
520.0
524.0
526.0
528.0
527.0
526.0
523.0
519.0
515.0
510.0
508.0
506.0
504.0
501.0
499.0
496.0
493.0
488.0
484.0
481.0
478.0
477.0
477.0
477.0
479.0
481.0
484.0
487.0
491.0
493.0
495.0
497.0
498.0
498.0
498.0
497.0
495.0
493.0
491.0
488.0
486.0
484.0
482.0
479.0
475.0
473.0
471.0
468.0
466.0
464.0
462.0
461.0
461.0
459.0
460.0
460.0
459.0
459.0
459.0
459.0
459.0
457.0
456.0
456.0
456.0
456.0
458.0
460.0
461.0
461.0
461.0
462.0
464.0
470.0
478.0
489.0
500.0
511.0
522.0
532.0
540.0
545.0
549.0
550.0
549.0
547.0
545.0
541.0
539.0
536.0
532.0
530.0
528.0
526.0
524.0
521.0
518.0
514.0
510.0
506.0
502.0
499.0
497.0
497.0
497.0
498.0
501.0
502.0
505.0
508.0
510.0
512.0
514.0
515.0
515.0
516.0
514.0
513.0
510.0
507.0
504.0
500.0
497.0
494.0
491.0
487.0
484.0
483.0
480.0
477.0
476.0
474.0
472.0
469.0
469.0
468.0
468.0
468.0
468.0
467.0
467.0
467.0
466.0
465.0
463.0
461.0
460.0
459.0
459.0
459.0
460.0
460.0
461.0
462.0
465.0
469.0
475.0
483.0
492.0
501.0
512.0
520.0
527.0
534.0
540.0
543.0
545.0
545.0
541.0
537.0
531.0
527.0
522.0
518.0
514.0
511.0
507.0
504.0
501.0
496.0
491.0
486.0
480.0
476.0
474.0
474.0
474.0
477.0
479.0
482.0
485.0
488.0
490.0
491.0
491.0
492.0
492.0
492.0
491.0
491.0
490.0
489.0
487.0
484.0
481.0
476.0
472.0
468.0
464.0
462.0
458.0
457.0
455.0
456.0
456.0
456.0
455.0
453.0
451.0
449.0
447.0
446.0
446.0
446.0
445.0
446.0
446.0
447.0
447.0
446.0
446.0
445.0
444.0
443.0
443.0
443.0
445.0
450.0
458.0
469.0
479.0
490.0
500.0
508.0
515.0
520.0
525.0
526.0
528.0
528.0
526.0
523.0
520.0
516.0
510.0
505.0
501.0
497.0
493.0
490.0
487.0
483.0
480.0
477.0
474.0
471.0
470.0
469.0
470.0
472.0
474.0
477.0
480.0
482.0
485.0
487.0
489.0
489.0
488.0
487.0
486.0
484.0
481.0
479.0
476.0
474.0
471.0
468.0
466.0
462.0
458.0
455.0
453.0
452.0
450.0
450.0
449.0
449.0
449.0
449.0
448.0
448.0
448.0
446.0
446.0
445.0
446.0
445.0
446.0
445.0
446.0
446.0
446.0
446.0
445.0
444.0
444.0
444.0
446.0
451.0
458.0
469.0
480.0
493.0
504.0
515.0
524.0
531.0
536.0
539.0
541.0
541.0
540.0
537.0
534.0
531.0
527.0
524.0
520.0
516.0
513.0
511.0
507.0
505.0
503.0
499.0
496.0
493.0
491.0
490.0
490.0
491.0
492.0
494.0
495.0
498.0
500.0
503.0
506.0
506.0
508.0
508.0
507.0
506.0
504.0
501.0
498.0
495.0
490.0
486.0
482.0
480.0
478.0
475.0
473.0
472.0
469.0
466.0
463.0
461.0
459.0
458.0
457.0
457.0
458.0
458.0
459.0
459.0
460.0
461.0
460.0
459.0
458.0
456.0
455.0
453.0
454.0
453.0
453.0
455.0
455.0
458.0
461.0
467.0
475.0
485.0
495.0
506.0
518.0
527.0
536.0
543.0
548.0
550.0
552.0
552.0
549.0
546.0
542.0
539.0
535.0
531.0
528.0
526.0
523.0
519.0
516.0
511.0
507.0
503.0
499.0
497.0
496.0
495.0
495.0
496.0
497.0
498.0
500.0
502.0
502.0
503.0
504.0
504.0
504.0
503.0
502.0
499.0
497.0
493.0
490.0
486.0
482.0
477.0
474.0
471.0
469.0
467.0
465.0
464.0
463.0
460.0
458.0
456.0
454.0
453.0
452.0
452.0
452.0
451.0
451.0
451.0
450.0
449.0
448.0
446.0
445.0
443.0
442.0
441.0
441.0
441.0
440.0
439.0
439.0
437.0
436.0
437.0
440.0
445.0
454.0
465.0
476.0
486.0
496.0
504.0
509.0
512.0
513.0
513.0
510.0
506.0
503.0
499.0
494.0
490.0
486.0
483.0
479.0
476.0
473.0
469.0
464.0
459.0
455.0
451.0
448.0
447.0
447.0
449.0
451.0
453.0
455.0
458.0
459.0
461.0
463.0
464.0
465.0
465.0
464.0
463.0
460.0
458.0
455.0
452.0
450.0
447.0
444.0
441.0
439.0
437.0
434.0
433.0
431.0
430.0
427.0
426.0
425.0
424.0
424.0
424.0
425.0
425.0
424.0
425.0
425.0
425.0
424.0
424.0
424.0
424.0
424.0
423.0
424.0
424.0
424.0
424.0
423.0
422.0
422.0
422.0
423.0
427.0
435.0
446.0
457.0
469.0
480.0
489.0
497.0
503.0
506.0
509.0
509.0
508.0
506.0
503.0
499.0
497.0
493.0
490.0
488.0
485.0
482.0
479.0
476.0
471.0
468.0
463.0
458.0
456.0
454.0
455.0
457.0
459.0
461.0
464.0
467.0
470.0
473.0
475.0
476.0
477.0
477.0
477.0
476.0
475.0
472.0
469.0
465.0
461.0
458.0
456.0
455.0
452.0
451.0
449.0
448.0
446.0
444.0
442.0
440.0
439.0
439.0
439.0
439.0
440.0
441.0
443.0
443.0
443.0
444.0
444.0
443.0
443.0
442.0
442.0
442.0
442.0
441.0
441.0
441.0
441.0
441.0
442.0
441.0
442.0
444.0
450.0
457.0
468.0
480.0
492.0
503.0
514.0
523.0
530.0
534.0
537.0
537.0
536.0
533.0
530.0
525.0
521.0
519.0
516.0
514.0
512.0
510.0
508.0
505.0
502.0
497.0
492.0
489.0
487.0
485.0
485.0
486.0
487.0
489.0
491.0
494.0
496.0
499.0
501.0
503.0
503.0
504.0
503.0
500.0
499.0
497.0
495.0
493.0
491.0
489.0
486.0
483.0
481.0
478.0
475.0
473.0
471.0
469.0
468.0
467.0
466.0
465.0
465.0
465.0
466.0
466.0
466.0
465.0
464.0
464.0
464.0
462.0
461.0
460.0
460.0
458.0
458.0
458.0
457.0
456.0
455.0
455.0
455.0
457.0
459.0
464.0
471.0
482.0
493.0
504.0
516.0
527.0
536.0
543.0
548.0
551.0
551.0
549.0
548.0
545.0
542.0
538.0
534.0
529.0
526.0
522.0
519.0
516.0
513.0
509.0
504.0
500.0
496.0
492.0
490.0
488.0
488.0
488.0
489.0
490.0
493.0
494.0
496.0
498.0
499.0
500.0
499.0
498.0
497.0
494.0
491.0
488.0
484.0
480.0
476.0
473.0
470.0
468.0
465.0
463.0
461.0
457.0
455.0
452.0
449.0
447.0
446.0
444.0
444.0
444.0
444.0
444.0
442.0
441.0
440.0
439.0
438.0
437.0
436.0
435.0
435.0
435.0
435.0
435.0
435.0
435.0
434.0
433.0
432.0
430.0
432.0
436.0
444.0
453.0
462.0
472.0
482.0
491.0
499.0
505.0
507.0
508.0
506.0
503.0
499.0
495.0
490.0
485.0
481.0
478.0
476.0
474.0
472.0
470.0
466.0
462.0
458.0
453.0
450.0
447.0
444.0
444.0
444.0
446.0
449.0
452.0
455.0
457.0
459.0
461.0
462.0
462.0
462.0
461.0
460.0
457.0
454.0
451.0
447.0
443.0
440.0
436.0
431.0
428.0
424.0
419.0
416.0
413.0
410.0
408.0
406.0
405.0
404.0
404.0
403.0
402.0
402.0
403.0
403.0
403.0
403.0
403.0
404.0
403.0
403.0
402.0
402.0
401.0
401.0
401.0
401.0
402.0
405.0
409.0
416.0
425.0
436.0
447.0
458.0
468.0
476.0
483.0
488.0
490.0
492.0
491.0
489.0
486.0
483.0
479.0
476.0
473.0
470.0
468.0
466.0
462.0
459.0
455.0
451.0
446.0
442.0
439.0
436.0
437.0
439.0
440.0
443.0
446.0
451.0
454.0
458.0
459.0
461.0
461.0
462.0
461.0
460.0
459.0
457.0
454.0
452.0
449.0
447.0
444.0
441.0
438.0
436.0
433.0
431.0
428.0
427.0
426.0
425.0
423.0
423.0
422.0
421.0
421.0
421.0
421.0
421.0
422.0
423.0
424.0
425.0
426.0
425.0
425.0
425.0
424.0
424.0
423.0
424.0
423.0
424.0
426.0
430.0
437.0
446.0
457.0
468.0
479.0
489.0
498.0
506.0
512.0
516.0
518.0
518.0
517.0
515.0
512.0
508.0
503.0
499.0
495.0
491.0
487.0
484.0
482.0
480.0
477.0
474.0
470.0
467.0
465.0
464.0
464.0
465.0
466.0
468.0
470.0
473.0
476.0
479.0
481.0
484.0
485.0
484.0
483.0
482.0
480.0
478.0
475.0
472.0
468.0
465.0
463.0
462.0
460.0
459.0
457.0
454.0
452.0
451.0
449.0
447.0
446.0
446.0
444.0
444.0
445.0
446.0
446.0
446.0
446.0
444.0
443.0
442.0
442.0
442.0
442.0
442.0
443.0
443.0
443.0
442.0
441.0
441.0
443.0
447.0
455.0
465.0
477.0
489.0
501.0
510.0
519.0
525.0
530.0
533.0
534.0
533.0
532.0
529.0
526.0
523.0
520.0
517.0
513.0
510.0
507.0
503.0
499.0
495.0
491.0
487.0
483.0
482.0
481.0
482.0
483.0
485.0
488.0
489.0
491.0
494.0
497.0
499.0
500.0
502.0
502.0
502.0
500.0
499.0
496.0
493.0
490.0
486.0
483.0
480.0
477.0
474.0
471.0
469.0
466.0
464.0
462.0
459.0
458.0
457.0
455.0
454.0
453.0
452.0
451.0
451.0
450.0
449.0
448.0
447.0
446.0
445.0
444.0
443.0
442.0
442.0
441.0
441.0
441.0
442.0
442.0
441.0
441.0
442.0
446.0
453.0
462.0
473.0
483.0
495.0
504.0
513.0
521.0
527.0
530.0
530.0
528.0
524.0
520.0
515.0
510.0
506.0
501.0
497.0
493.0
489.0
485.0
482.0
478.0
473.0
469.0
466.0
464.0
463.0
463.0
463.0
464.0
464.0
466.0
470.0
472.0
475.0
477.0
477.0
477.0
475.0
473.0
471.0
468.0
465.0
461.0
458.0
453.0
450.0
448.0
446.0
443.0
441.0
438.0
435.0
431.0
428.0
424.0
423.0
421.0
421.0
420.0
421.0
420.0
420.0
421.0
421.0
419.0
418.0
417.0
416.0
416.0
416.0
415.0
416.0
417.0
418.0
418.0
417.0
416.0
416.0
414.0
415.0
417.0
422.0
430.0
440.0
450.0
460.0
470.0
478.0
485.0
490.0
494.0
496.0
496.0
494.0
491.0
487.0
482.0
478.0
475.0
471.0
468.0
466.0
463.0
460.0
458.0
453.0
448.0
443.0
439.0
437.0
437.0
437.0
440.0
442.0
445.0
447.0
450.0
452.0
454.0
456.0
457.0
457.0
456.0
454.0
452.0
449.0
446.0
445.0
441.0
437.0
433.0
430.0
427.0
425.0
423.0
420.0
418.0
416.0
416.0
415.0
413.0
411.0
411.0
410.0
411.0
411.0
414.0
416.0
417.0
418.0
418.0
418.0
417.0
416.0
414.0
413.0
411.0
410.0
410.0
410.0
411.0
412.0
413.0
413.0
415.0
419.0
427.0
437.0
447.0
458.0
468.0
479.0
487.0
494.0
499.0
503.0
504.0
503.0
501.0
499.0
496.0
493.0
489.0
486.0
483.0
480.0
477.0
474.0
470.0
466.0
462.0
458.0
454.0
451.0
449.0
449.0
450.0
451.0
454.0
457.0
458.0
461.0
463.0
464.0
465.0
466.0
465.0
465.0
464.0
462.0
460.0
458.0
456.0
454.0
451.0
449.0
447.0
443.0
441.0
438.0
435.0
433.0
430.0
428.0
426.0
426.0
425.0
425.0
426.0
426.0
427.0
427.0
426.0
425.0
424.0
423.0
423.0
423.0
422.0
422.0
422.0
422.0
422.0
421.0
421.0
420.0
419.0
419.0
418.0
417.0
417.0
418.0
423.0
430.0
440.0
454.0
466.0
477.0
489.0
498.0
506.0
511.0
514.0
517.0
518.0
516.0
514.0
510.0
505.0
499.0
494.0
490.0
487.0
485.0
482.0
481.0
479.0
476.0
473.0
471.0
467.0
464.0
461.0
461.0
460.0
461.0
464.0
467.0
470.0
473.0
475.0
478.0
479.0
479.0
477.0
475.0
473.0
470.0
466.0
464.0
461.0
459.0
456.0
454.0
452.0
449.0
445.0
442.0
439.0
436.0
434.0
433.0
432.0
432.0
432.0
432.0
433.0
432.0
432.0
432.0
432.0
432.0
433.0
433.0
433.0
433.0
434.0
434.0
433.0
432.0
430.0
429.0
427.0
426.0
426.0
427.0
427.0
428.0
428.0
429.0
430.0
432.0
437.0
445.0
455.0
468.0
481.0
494.0
506.0
516.0
523.0
528.0
531.0
531.0
529.0
527.0
523.0
520.0
514.0
510.0
506.0
502.0
498.0
494.0
491.0
487.0
482.0
478.0
473.0
469.0
467.0
466.0
465.0
466.0
467.0
469.0
471.0
473.0
475.0
477.0
478.0
479.0
480.0
481.0
481.0
481.0
479.0
477.0
475.0
471.0
467.0
463.0
459.0
456.0
453.0
451.0
449.0
448.0
446.0
444.0
442.0
440.0
438.0
437.0
436.0
436.0
435.0
436.0
436.0
437.0
437.0
437.0
438.0
440.0
439.0
440.0
438.0
438.0
437.0
436.0
435.0
435.0
433.0
433.0
433.0
432.0
431.0
430.0
429.0
426.0
425.0
423.0
422.0
421.0
421.0
424.0
431.0
441.0
455.0
469.0
483.0
495.0
507.0
515.0
522.0
528.0
532.0
534.0
534.0
532.0
528.0
524.0
517.0
511.0
505.0
499.0
494.0
490.0
486.0
482.0
479.0
475.0
472.0
467.0
463.0
460.0
459.0
458.0
458.0
460.0
462.0
465.0
468.0
471.0
474.0
475.0
474.0
474.0
471.0
470.0
467.0
465.0
461.0
458.0
455.0
452.0
448.0
445.0
441.0
438.0
434.0
432.0
429.0
427.0
425.0
424.0
423.0
421.0
420.0
419.0
418.0
418.0
417.0
417.0
416.0
414.0
413.0
414.0
414.0
413.0
413.0
413.0
412.0
412.0
412.0
411.0
411.0
409.0
407.0
406.0
403.0
402.0
401.0
400.0
399.0
398.0
396.0
395.0
396.0
400.0
407.0
417.0
428.0
439.0
449.0
458.0
466.0
472.0
476.0
479.0
479.0
479.0
477.0
474.0
471.0
468.0
464.0
460.0
457.0
453.0
449.0
446.0
442.0
438.0
433.0
428.0
422.0
419.0
417.0
417.0
417.0
420.0
423.0
427.0
430.0
434.0
437.0
440.0
441.0
442.0
442.0
442.0
442.0
440.0
439.0
438.0
435.0
431.0
428.0
425.0
422.0
419.0
416.0
413.0
411.0
409.0
407.0
405.0
404.0
403.0
400.0
399.0
399.0
398.0
399.0
399.0
400.0
401.0
402.0
403.0
403.0
403.0
402.0
401.0
401.0
401.0
401.0
401.0
401.0
402.0
401.0
400.0
399.0
398.0
398.0
398.0
398.0
401.0
406.0
414.0
425.0
437.0
448.0
457.0
465.0
473.0
478.0
483.0
485.0
487.0
487.0
486.0
483.0
481.0
477.0
473.0
468.0
464.0
460.0
457.0
453.0
450.0
447.0
443.0
440.0
436.0
433.0
432.0
432.0
433.0
434.0
435.0
438.0
441.0
443.0
447.0
450.0
452.0
453.0
454.0
454.0
453.0
451.0
449.0
446.0
444.0
440.0
437.0
435.0
433.0
431.0
429.0
427.0
424.0
422.0
420.0
417.0
416.0
415.0
414.0
414.0
414.0
415.0
416.0
417.0
418.0
418.0
419.0
419.0
420.0
420.0
421.0
420.0
420.0
419.0
420.0
419.0
420.0
420.0
420.0
420.0
419.0
420.0
422.0
426.0
434.0
443.0
454.0
466.0
477.0
486.0
495.0
501.0
506.0
510.0
512.0
512.0
511.0
509.0
507.0
503.0
499.0
494.0
491.0
488.0
485.0
482.0
479.0
477.0
475.0
471.0
468.0
465.0
463.0
462.0
462.0
464.0
466.0
469.0
472.0
475.0
478.0
480.0
481.0
483.0
484.0
483.0
483.0
480.0
479.0
477.0
476.0
475.0
473.0
471.0
469.0
467.0
465.0
462.0
460.0
456.0
453.0
450.0
447.0
445.0
444.0
443.0
444.0
446.0
447.0
448.0
449.0
450.0
451.0
450.0
450.0
448.0
447.0
446.0
446.0
445.0
445.0
446.0
446.0
447.0
447.0
447.0
446.0
447.0
448.0
454.0
462.0
472.0
485.0
495.0
508.0
517.0
525.0
531.0
535.0
537.0
537.0
537.0
534.0
532.0
529.0
524.0
522.0
517.0
513.0
509.0
506.0
503.0
500.0
496.0
493.0
489.0
485.0
481.0
480.0
479.0
479.0
481.0
483.0
485.0
486.0
488.0
489.0
491.0
491.0
491.0
492.0
491.0
491.0
489.0
489.0
487.0
485.0
482.0
479.0
478.0
475.0
472.0
470.0
467.0
463.0
460.0
458.0
455.0
454.0
452.0
450.0
449.0
449.0
449.0
450.0
450.0
450.0
450.0
450.0
449.0
448.0
447.0
446.0
445.0
444.0
443.0
442.0
442.0
442.0
442.0
442.0
441.0
439.0
439.0
439.0
442.0
449.0
459.0
470.0
481.0
493.0
504.0
513.0
520.0
524.0
526.0
526.0
525.0
523.0
520.0
517.0
513.0
509.0
504.0
500.0
495.0
491.0
488.0
485.0
482.0
478.0
475.0
474.0
470.0
467.0
466.0
466.0
465.0
466.0
467.0
470.0
472.0
474.0
476.0
478.0
478.0
478.0
477.0
476.0
474.0
471.0
467.0
464.0
461.0
458.0
455.0
454.0
450.0
447.0
444.0
441.0
437.0
434.0
432.0
430.0
429.0
428.0
428.0
428.0
428.0
428.0
427.0
425.0
423.0
421.0
419.0
418.0
417.0
417.0
416.0
416.0
416.0
415.0
414.0
412.0
410.0
409.0
406.0
406.0
404.0
404.0
403.0
406.0
410.0
419.0
428.0
438.0
447.0
454.0
461.0
468.0
473.0
477.0
480.0
481.0
480.0
478.0
476.0
473.0
470.0
464.0
460.0
456.0
452.0
449.0
447.0
444.0
440.0
436.0
432.0
428.0
426.0
424.0
424.0
425.0
425.0
427.0
429.0
433.0
435.0
438.0
440.0
442.0
442.0
442.0
440.0
438.0
436.0
435.0
433.0
431.0
429.0
427.0
425.0
422.0
421.0
419.0
415.0
413.0
410.0
408.0
406.0
406.0
405.0
406.0
406.0
407.0
409.0
410.0
409.0
409.0
408.0
408.0
407.0
407.0
407.0
407.0
407.0
407.0
408.0
408.0
409.0
408.0
408.0
408.0
407.0
408.0
409.0
413.0
420.0
429.0
441.0
453.0
465.0
476.0
485.0
492.0
497.0
500.0
501.0
501.0
500.0
500.0
497.0
494.0
490.0
487.0
482.0
479.0
476.0
474.0
472.0
468.0
466.0
463.0
459.0
457.0
454.0
454.0
453.0
454.0
455.0
458.0
461.0
464.0
467.0
470.0
473.0
474.0
474.0
474.0
472.0
470.0
468.0
466.0
463.0
461.0
458.0
455.0
452.0
449.0
446.0
445.0
442.0
438.0
435.0
433.0
432.0
430.0
429.0
429.0
430.0
429.0
429.0
429.0
428.0
428.0
426.0
427.0
427.0
427.0
427.0
427.0
427.0
426.0
425.0
424.0
422.0
420.0
419.0
419.0
419.0
420.0
420.0
422.0
425.0
429.0
436.0
446.0
456.0
466.0
478.0
489.0
499.0
508.0
515.0
521.0
525.0
526.0
525.0
522.0
518.0
512.0
507.0
503.0
498.0
495.0
493.0
492.0
491.0
489.0
487.0
484.0
480.0
476.0
474.0
472.0
471.0
472.0
473.0
475.0
478.0
480.0
483.0
483.0
485.0
484.0
484.0
484.0
484.0
483.0
482.0
481.0
479.0
477.0
475.0
473.0
471.0
467.0
463.0
460.0
458.0
456.0
454.0
453.0
453.0
453.0
452.0
451.0
449.0
447.0
445.0
444.0
443.0
444.0
445.0
445.0
447.0
447.0
447.0
446.0
446.0
443.0
442.0
441.0
438.0
438.0
437.0
437.0
437.0
437.0
437.0
436.0
436.0
436.0
437.0
443.0
453.0
463.0
477.0
490.0
504.0
515.0
524.0
532.0
537.0
539.0
539.0
539.0
537.0
535.0
531.0
528.0
524.0
520.0
516.0
512.0
509.0
506.0
503.0
499.0
496.0
492.0
489.0
486.0
484.0
482.0
482.0
482.0
483.0
483.0
484.0
486.0
488.0
489.0
491.0
492.0
493.0
492.0
491.0
489.0
486.0
483.0
479.0
476.0
473.0
470.0
467.0
464.0
461.0
459.0
456.0
453.0
451.0
448.0
447.0
447.0
446.0
446.0
446.0
445.0
445.0
444.0
443.0
442.0
442.0
440.0
440.0
440.0
441.0
441.0
442.0
443.0
443.0
443.0
442.0
441.0
439.0
436.0
434.0
432.0
431.0
430.0
430.0
429.0
430.0
429.0
429.0
429.0
430.0
435.0
443.0
454.0
468.0
482.0
495.0
507.0
518.0
526.0
531.0
534.0
535.0
533.0
530.0
526.0
520.0
515.0
510.0
505.0
502.0
499.0
497.0
495.0
491.0
486.0
481.0
475.0
471.0
467.0
465.0
464.0
465.0
466.0
467.0
469.0
470.0
471.0
472.0
472.0
472.0
472.0
471.0
470.0
470.0
468.0
466.0
463.0
459.0
455.0
451.0
448.0
445.0
443.0
440.0
438.0
435.0
432.0
431.0
429.0
426.0
423.0
420.0
419.0
419.0
419.0
419.0
419.0
419.0
419.0
418.0
417.0
416.0
415.0
415.0
414.0
413.0
413.0
413.0
413.0
414.0
412.0
411.0
408.0
406.0
403.0
400.0
398.0
397.0
396.0
395.0
395.0
395.0
396.0
398.0
404.0
411.0
421.0
431.0
441.0
451.0
462.0
470.0
478.0
484.0
486.0
487.0
485.0
482.0
477.0
472.0
466.0
462.0
457.0
454.0
450.0
447.0
445.0
442.0
438.0
433.0
428.0
422.0
418.0
416.0
415.0
415.0
420.0
424.0
426.0
429.0
432.0
434.0
435.0
435.0
436.0
436.0
436.0
434.0
434.0
433.0
430.0
428.0
426.0
424.0
421.0
418.0
416.0
413.0
411.0
409.0
408.0
406.0
403.0
400.0
398.0
397.0
395.0
394.0
395.0
396.0
398.0
398.0
400.0
401.0
400.0
400.0
399.0
399.0
398.0
397.0
396.0
396.0
396.0
396.0
397.0
397.0
396.0
395.0
394.0
393.0
392.0
390.0
391.0
392.0
397.0
404.0
414.0
426.0
436.0
446.0
455.0
465.0
472.0
478.0
481.0
485.0
485.0
486.0
485.0
482.0
477.0
472.0
467.0
462.0
459.0
457.0
454.0
453.0
451.0
448.0
445.0
441.0
438.0
435.0
434.0
435.0
435.0
437.0
440.0
445.0
448.0
451.0
455.0
456.0
456.0
455.0
455.0
454.0
452.0
451.0
450.0
449.0
447.0
445.0
443.0
440.0
436.0
433.0
429.0
426.0
424.0
423.0
421.0
421.0
421.0
421.0
421.0
422.0
421.0
420.0
419.0
418.0
418.0
418.0
418.0
420.0
421.0
422.0
422.0
423.0
421.0
420.0
419.0
418.0
416.0
416.0
417.0
418.0
417.0
418.0
419.0
420.0
423.0
427.0
434.0
444.0
455.0
467.0
480.0
491.0
501.0
509.0
516.0
519.0
520.0
520.0
517.0
513.0
508.0
503.0
500.0
496.0
494.0
492.0
491.0
489.0
487.0
484.0
480.0
476.0
472.0
469.0
468.0
469.0
471.0
475.0
478.0
480.0
482.0
483.0
483.0
484.0
485.0
486.0
487.0
488.0
489.0
489.0
487.0
485.0
482.0
477.0
473.0
470.0
466.0
463.0
461.0
459.0
458.0
456.0
456.0
454.0
453.0
452.0
451.0
451.0
450.0
450.0
452.0
453.0
453.0
454.0
456.0
455.0
454.0
453.0
452.0
450.0
449.0
447.0
446.0
446.0
447.0
447.0
448.0
448.0
447.0
446.0
446.0
449.0
454.0
463.0
474.0
487.0
499.0
512.0
523.0
531.0
537.0
541.0
541.0
540.0
539.0
537.0
534.0
531.0
528.0
524.0
522.0
518.0
515.0
512.0
509.0
504.0
500.0
495.0
492.0
489.0
487.0
486.0
487.0
487.0
489.0
491.0
493.0
495.0
498.0
499.0
502.0
503.0
504.0
504.0
503.0
501.0
498.0
494.0
491.0
487.0
484.0
481.0
478.0
476.0
474.0
473.0
472.0
469.0
467.0
464.0
462.0
459.0
457.0
455.0
455.0
455.0
455.0
456.0
458.0
458.0
458.0
457.0
456.0
455.0
453.0
451.0
449.0
448.0
447.0
447.0
446.0
444.0
444.0
442.0
440.0
440.0
441.0
445.0
452.0
461.0
470.0
480.0
490.0
500.0
508.0
515.0
519.0
522.0
523.0
521.0
518.0
514.0
509.0
503.0
498.0
493.0
489.0
485.0
481.0
477.0
474.0
469.0
464.0
459.0
455.0
452.0
450.0
449.0
449.0
449.0
451.0
452.0
454.0
456.0
457.0
457.0
457.0
456.0
455.0
453.0
451.0
449.0
447.0
445.0
443.0
440.0
437.0
433.0
429.0
426.0
424.0
421.0
420.0
418.0
417.0
416.0
415.0
414.0
413.0
413.0
412.0
412.0
411.0
411.0
411.0
410.0
410.0
411.0
411.0
411.0
411.0
411.0
410.0
409.0
408.0
408.0
408.0
407.0
406.0
407.0
409.0
413.0
419.0
429.0
440.0
450.0
461.0
470.0
480.0
487.0
493.0
497.0
499.0
501.0
501.0
498.0
495.0
490.0
487.0
482.0
478.0
474.0
471.0
468.0
466.0
464.0
461.0
457.0
452.0
448.0
446.0
443.0
443.0
445.0
446.0
448.0
450.0
454.0
457.0
460.0
462.0
462.0
463.0
462.0
459.0
458.0
455.0
452.0
449.0
446.0
444.0
442.0
440.0
436.0
433.0
431.0
428.0
427.0
426.0
426.0
426.0
426.0
427.0
428.0
427.0
426.0
426.0
425.0
426.0
424.0
425.0
426.0
427.0
428.0
428.0
429.0
429.0
428.0
427.0
426.0
425.0
425.0
424.0
424.0
424.0
424.0
427.0
431.0
440.0
451.0
465.0
479.0
492.0
503.0
514.0
521.0
528.0
531.0
534.0
534.0
534.0
532.0
530.0
526.0
523.0
518.0
515.0
511.0
508.0
504.0
502.0
498.0
495.0
490.0
487.0
482.0
480.0
477.0
478.0
478.0
480.0
481.0
484.0
486.0
489.0
490.0
492.0
491.0
491.0
488.0
487.0
484.0
481.0
479.0
478.0
475.0
472.0
469.0
467.0
464.0
461.0
458.0
457.0
455.0
453.0
452.0
451.0
451.0
450.0
449.0
448.0
448.0
448.0
447.0
448.0
449.0
448.0
447.0
448.0
448.0
448.0
448.0
448.0
448.0
446.0
444.0
442.0
440.0
439.0
438.0
438.0
437.0
438.0
439.0
440.0
444.0
450.0
459.0
472.0
486.0
500.0
514.0
526.0
538.0
546.0
553.0
557.0
559.0
559.0
557.0
553.0
547.0
541.0
537.0
533.0
530.0
528.0
526.0
524.0
522.0
518.0
513.0
507.0
501.0
498.0
495.0
495.0
495.0
496.0
498.0
499.0
501.0
501.0
502.0
503.0
504.0
504.0
503.0
502.0
501.0
499.0
497.0
494.0
491.0
487.0
484.0
479.0
476.0
473.0
470.0
468.0
466.0
463.0
461.0
461.0
459.0
459.0
457.0
456.0
454.0
453.0
452.0
451.0
451.0
451.0
451.0
451.0
451.0
451.0
449.0
448.0
446.0
444.0
442.0
440.0
437.0
435.0
433.0
432.0
431.0
431.0
429.0
428.0
427.0
426.0
424.0
425.0
428.0
434.0
443.0
455.0
470.0
485.0
500.0
513.0
524.0
533.0
539.0
543.0
543.0
542.0
539.0
535.0
529.0
524.0
520.0
515.0
511.0
506.0
503.0
499.0
495.0
491.0
484.0
478.0
472.0
468.0
464.0
462.0
462.0
462.0
463.0
465.0
467.0
468.0
470.0
471.0
471.0
470.0
470.0
468.0
464.0
462.0
458.0
456.0
452.0
450.0
445.0
443.0
438.0
435.0
431.0
430.0
425.0
423.0
420.0
418.0
415.0
414.0
414.0
413.0
412.0
412.0
412.0
412.0
412.0
413.0
413.0
412.0
413.0
413.0
411.0
411.0
410.0
409.0
408.0
407.0
406.0
406.0
404.0
403.0
401.0
397.0
396.0
395.0
394.0
394.0
393.0
393.0
393.0
395.0
400.0
409.0
420.0
434.0
447.0
462.0
477.0
489.0
499.0
508.0
513.0
516.0
516.0
514.0
508.0
503.0
498.0
492.0
488.0
483.0
480.0
477.0
474.0
471.0
468.0
464.0
460.0
455.0
452.0
449.0
447.0
447.0
447.0
448.0
448.0
451.0
453.0
457.0
459.0
462.0
463.0
464.0
463.0
461.0
458.0
455.0
452.0
449.0
445.0
443.0
439.0
436.0
433.0
429.0
426.0
422.0
419.0
417.0
415.0
413.0
413.0
412.0
411.0
409.0
407.0
406.0
404.0
403.0
403.0
404.0
404.0
405.0
405.0
407.0
408.0
409.0
408.0
406.0
403.0
399.0
397.0
396.0
394.0
394.0
394.0
396.0
398.0
399.0
399.0
399.0
397.0
395.0
393.0
396.0
403.0
415.0
430.0
448.0
466.0
483.0
499.0
513.0
524.0
532.0
537.0
539.0
536.0
533.0
528.0
524.0
520.0
515.0
510.0
507.0
504.0
502.0
500.0
498.0
494.0
490.0
484.0
478.0
473.0
469.0
467.0
467.0
468.0
469.0
471.0
474.0
476.0
479.0
482.0
484.0
485.0
484.0
483.0
480.0
477.0
473.0
470.0
467.0
464.0
461.0
458.0
456.0
453.0
450.0
446.0
442.0
437.0
433.0
430.0
429.0
427.0
427.0
426.0
427.0
427.0
427.0
427.0
427.0
426.0
425.0
422.0
422.0
423.0
423.0
423.0
424.0
425.0
425.0
425.0
425.0
425.0
424.0
422.0
421.0
419.0
417.0
416.0
414.0
413.0
413.0
412.0
411.0
411.0
411.0
412.0
416.0
424.0
436.0
452.0
469.0
487.0
504.0
519.0
532.0
542.0
549.0
551.0
552.0
552.0
549.0
546.0
542.0
536.0
532.0
528.0
523.0
519.0
516.0
512.0
509.0
506.0
501.0
496.0
490.0
486.0
482.0
480.0
479.0
481.0
482.0
484.0
487.0
489.0
491.0
492.0
493.0
493.0
493.0
492.0
491.0
489.0
486.0
484.0
481.0
478.0
474.0
470.0
465.0
461.0
458.0
454.0
450.0
447.0
443.0
441.0
439.0
437.0
436.0
436.0
436.0
436.0
436.0
436.0
436.0
437.0
437.0
437.0
437.0
436.0
436.0
436.0
436.0
436.0
437.0
437.0
437.0
435.0
432.0
430.0
428.0
425.0
422.0
419.0
418.0
416.0
413.0
412.0
411.0
409.0
408.0
406.0
408.0
413.0
422.0
435.0
451.0
466.0
481.0
496.0
509.0
520.0
529.0
536.0
541.0
543.0
544.0
541.0
537.0
532.0
525.0
519.0
513.0
508.0
503.0
499.0
494.0
490.0
486.0
481.0
476.0
471.0
467.0
465.0
463.0
463.0
463.0
464.0
466.0
469.0
471.0
473.0
475.0
477.0
477.0
477.0
475.0
473.0
471.0
467.0
464.0
461.0
456.0
453.0
450.0
446.0
442.0
437.0
434.0
430.0
427.0
423.0
420.0
416.0
413.0
412.0
410.0
409.0
407.0
407.0
407.0
407.0
407.0
406.0
406.0
405.0
403.0
401.0
400.0
399.0
399.0
399.0
398.0
397.0
396.0
395.0
393.0
391.0
389.0
386.0
385.0
383.0
381.0
380.0
378.0
378.0
381.0
387.0
397.0
409.0
422.0
435.0
447.0
459.0
468.0
475.0
483.0
486.0
487.0
487.0
484.0
480.0
475.0
469.0
463.0
458.0
453.0
448.0
444.0
440.0
435.0
430.0
425.0
419.0
412.0
407.0
405.0
404.0
404.0
406.0
409.0
413.0
416.0
419.0
421.0
424.0
425.0
426.0
427.0
427.0
427.0
426.0
425.0
423.0
421.0
418.0
414.0
410.0
406.0
403.0
400.0
398.0
396.0
392.0
390.0
388.0
386.0
384.0
383.0
382.0
381.0
380.0
381.0
382.0
382.0
383.0
384.0
385.0
384.0
384.0
383.0
381.0
381.0
380.0
380.0
380.0
380.0
381.0
382.0
382.0
382.0
381.0
379.0
381.0
384.0
393.0
404.0
418.0
431.0
445.0
457.0
468.0
477.0
483.0
486.0
488.0
488.0
486.0
484.0
482.0
478.0
475.0
472.0
469.0
464.0
460.0
457.0
453.0
450.0
447.0
443.0
438.0
434.0
430.0
429.0
428.0
428.0
430.0
432.0
436.0
439.0
443.0
446.0
449.0
450.0
451.0
453.0
452.0
451.0
448.0
445.0
443.0
439.0
436.0
433.0
429.0
426.0
423.0
421.0
419.0
417.0
414.0
412.0
410.0
407.0
406.0
405.0
405.0
405.0
406.0
406.0
406.0
407.0
408.0
407.0
408.0
407.0
406.0
406.0
406.0
406.0
407.0
407.0
408.0
409.0
409.0
409.0
411.0
415.0
421.0
431.0
442.0
456.0
470.0
483.0
495.0
505.0
513.0
519.0
522.0
524.0
523.0
521.0
518.0
514.0
509.0
505.0
501.0
495.0
492.0
489.0
485.0
481.0
478.0
474.0
468.0
463.0
459.0
456.0
455.0
456.0
457.0
459.0
461.0
463.0
465.0
467.0
470.0
472.0
473.0
473.0
473.0
472.0
470.0
468.0
466.0
462.0
458.0
455.0
452.0
448.0
445.0
442.0
439.0
436.0
432.0
430.0
428.0
426.0
426.0
426.0
426.0
426.0
427.0
427.0
426.0
425.0
424.0
423.0
424.0
423.0
423.0
423.0
425.0
426.0
427.0
428.0
428.0
428.0
427.0
428.0
431.0
438.0
449.0
461.0
475.0
489.0
503.0
516.0
526.0
533.0
538.0
541.0
542.0
541.0
538.0
536.0
533.0
529.0
526.0
523.0
520.0
518.0
515.0
511.0
507.0
504.0
500.0
495.0
490.0
486.0
484.0
483.0
483.0
485.0
486.0
488.0
490.0
492.0
494.0
497.0
498.0
498.0
498.0
497.0
495.0
494.0
492.0
488.0
485.0
482.0
478.0
474.0
469.0
465.0
462.0
458.0
456.0
454.0
451.0
450.0
447.0
445.0
441.0
439.0
437.0
435.0
434.0
434.0
435.0
435.0
434.0
433.0
431.0
429.0
427.0
425.0
425.0
425.0
425.0
425.0
426.0
426.0
427.0
429.0
434.0
442.0
452.0
465.0
478.0
489.0
501.0
512.0
520.0
525.0
528.0
530.0
529.0
527.0
522.0
518.0
514.0
508.0
504.0
499.0
496.0
492.0
487.0
483.0
479.0
474.0
468.0
464.0
460.0
458.0
457.0
457.0
458.0
460.0
461.0
462.0
464.0
465.0
466.0
467.0
468.0
468.0
467.0
467.0
466.0
464.0
460.0
456.0
453.0
448.0
444.0
439.0
435.0
432.0
429.0
427.0
424.0
422.0
420.0
417.0
415.0
414.0
412.0
411.0
410.0
409.0
408.0
408.0
407.0
407.0
407.0
406.0
405.0
403.0
402.0
401.0
401.0
401.0
400.0
400.0
399.0
400.0
405.0
412.0
422.0
434.0
445.0
458.0
470.0
479.0
488.0
494.0
498.0
500.0
500.0
498.0
494.0
488.0
484.0
479.0
473.0
468.0
465.0
462.0
459.0
457.0
452.0
448.0
443.0
438.0
433.0
432.0
431.0
433.0
435.0
439.0
444.0
447.0
451.0
454.0
456.0
456.0
455.0
455.0
454.0
452.0
450.0
447.0
445.0
442.0
439.0
435.0
432.0
428.0
424.0
421.0
418.0
414.0
411.0
409.0
407.0
404.0
404.0
403.0
403.0
403.0
403.0
403.0
403.0
403.0
403.0
403.0
403.0
404.0
404.0
405.0
405.0
405.0
405.0
405.0
404.0
405.0
406.0
409.0
415.0
426.0
439.0
453.0
467.0
479.0
492.0
504.0
513.0
519.0
523.0
524.0
523.0
520.0
517.0
514.0
509.0
504.0
499.0
495.0
492.0
490.0
487.0
485.0
482.0
479.0
475.0
471.0
468.0
465.0
464.0
464.0
464.0
467.0
469.0
473.0
477.0
480.0
482.0
483.0
484.0
483.0
482.0
481.0
479.0
477.0
474.0
471.0
468.0
466.0
463.0
460.0
456.0
452.0
448.0
446.0
443.0
442.0
440.0
439.0
437.0
437.0
435.0
435.0
434.0
433.0
432.0
432.0
432.0
432.0
431.0
431.0
431.0
431.0
429.0
428.0
427.0
425.0
424.0
424.0
424.0
424.0
426.0
431.0
437.0
448.0
461.0
473.0
487.0
498.0
509.0
519.0
527.0
534.0
538.0
541.0
540.0
539.0
535.0
530.0
524.0
519.0
512.0
506.0
500.0
496.0
493.0
490.0
487.0
482.0
476.0
470.0
465.0
462.0
460.0
459.0
458.0
460.0
462.0
465.0
467.0
469.0
470.0
471.0
470.0
468.0
467.0
466.0
464.0
463.0
460.0
457.0
452.0
448.0
444.0
440.0
436.0
431.0
427.0
425.0
422.0
420.0
418.0
417.0
416.0
414.0
413.0
413.0
412.0
411.0
410.0
409.0
407.0
406.0
405.0
405.0
404.0
405.0
405.0
406.0
406.0
407.0
407.0
406.0
405.0
406.0
410.0
418.0
429.0
442.0
456.0
470.0
485.0
496.0
505.0
512.0
517.0
518.0
517.0
515.0
512.0
509.0
505.0
499.0
494.0
488.0
484.0
479.0
474.0
471.0
468.0
464.0
460.0
455.0
452.0
450.0
449.0
448.0
447.0
448.0
450.0
454.0
457.0
461.0
464.0
467.0
468.0
468.0
466.0
463.0
460.0
457.0
452.0
449.0
445.0
442.0
438.0
434.0
431.0
427.0
423.0
420.0
417.0
415.0
412.0
410.0
409.0
407.0
405.0
404.0
404.0
404.0
404.0
403.0
402.0
402.0
401.0
401.0
400.0
400.0
400.0
399.0
399.0
400.0
401.0
400.0
400.0
401.0
403.0
409.0
419.0
432.0
447.0
463.0
478.0
493.0
505.0
514.0
520.0
522.0
524.0
524.0
522.0
522.0
519.0
515.0
509.0
505.0
501.0
497.0
493.0
489.0
486.0
482.0
480.0
477.0
472.0
470.0
468.0
467.0
467.0
467.0
468.0
471.0
472.0
474.0
477.0
479.0
481.0
482.0
482.0
483.0
482.0
480.0
477.0
474.0
471.0
468.0
465.0
464.0
460.0
456.0
453.0
450.0
445.0
442.0
440.0
438.0
437.0
436.0
436.0
435.0
436.0
436.0
435.0
434.0
434.0
434.0
432.0
431.0
430.0
430.0
429.0
430.0
428.0
427.0
426.0
426.0
424.0
423.0
422.0
422.0
423.0
427.0
435.0
447.0
460.0
474.0
490.0
505.0
518.0
529.0
538.0
542.0
545.0
545.0
543.0
542.0
538.0
534.0
530.0
526.0
521.0
517.0
513.0
508.0
504.0
498.0
493.0
489.0
483.0
480.0
478.0
478.0
480.0
482.0
484.0
486.0
488.0
490.0
492.0
493.0
494.0
495.0
494.0
494.0
492.0
489.0
485.0
482.0
477.0
473.0
468.0
465.0
461.0
456.0
452.0
449.0
445.0
442.0
439.0
435.0
433.0
430.0
429.0
428.0
428.0
427.0
426.0
425.0
426.0
426.0
424.0
423.0
423.0
422.0
421.0
420.0
420.0
420.0
419.0
419.0
419.0
418.0
418.0
417.0
416.0
415.0
417.0
422.0
431.0
444.0
460.0
477.0
494.0
511.0
523.0
535.0
543.0
548.0
549.0
549.0
548.0
544.0
540.0
536.0
530.0
525.0
521.0
516.0
511.0
505.0
499.0
493.0
485.0
479.0
473.0
469.0
465.0
463.0
462.0
463.0
463.0
464.0
465.0
467.0
469.0
472.0
474.0
475.0
476.0
476.0
475.0
472.0
468.0
463.0
458.0
453.0
449.0
445.0
441.0
438.0
432.0
427.0
422.0
417.0
413.0
409.0
406.0
405.0
404.0
405.0
404.0
404.0
403.0
403.0
402.0
401.0
400.0
400.0
399.0
399.0
399.0
399.0
398.0
399.0
398.0
396.0
395.0
395.0
393.0
393.0
393.0
394.0
396.0
398.0
402.0
410.0
421.0
434.0
447.0
460.0
472.0
484.0
494.0
504.0
511.0
516.0
519.0
519.0
518.0
514.0
507.0
500.0
493.0
485.0
479.0
474.0
469.0
465.0
461.0
457.0
452.0
447.0
442.0
439.0
437.0
436.0
435.0
437.0
440.0
445.0
450.0
455.0
459.0
462.0
464.0
465.0
465.0
463.0
461.0
457.0
454.0
452.0
448.0
447.0
446.0
443.0
440.0
436.0
431.0
425.0
419.0
414.0
410.0
408.0
406.0
405.0
404.0
404.0
404.0
404.0
403.0
402.0
402.0
401.0
400.0
399.0
397.0
396.0
394.0
394.0
393.0
393.0
393.0
392.0
393.0
393.0
391.0
389.0
387.0
386.0
387.0
391.0
399.0
411.0
426.0
441.0
456.0
469.0
481.0
490.0
497.0
504.0
507.0
508.0
508.0
506.0
503.0
498.0
491.0
485.0
478.0
472.0
466.0
461.0
456.0
450.0
445.0
439.0
433.0
426.0
422.0
420.0
419.0
421.0
424.0
428.0
433.0
439.0
443.0
447.0
448.0
448.0
447.0
445.0
442.0
439.0
437.0
434.0
432.0
430.0
427.0
425.0
422.0
418.0
415.0
412.0
408.0
405.0
402.0
400.0
398.0
397.0
396.0
396.0
395.0
394.0
394.0
394.0
393.0
393.0
391.0
391.0
390.0
390.0
389.0
390.0
389.0
389.0
388.0
388.0
388.0
388.0
389.0
391.0
394.0
401.0
412.0
423.0
435.0
447.0
458.0
468.0
476.0
484.0
490.0
495.0
497.0
497.0
495.0
493.0
490.0
484.0
479.0
472.0
464.0
457.0
450.0
442.0
435.0
428.0
421.0
415.0
409.0
406.0
404.0
403.0
405.0
409.0
413.0
417.0
422.0
427.0
432.0
436.0
439.0
442.0
442.0
442.0
442.0
440.0
438.0
435.0
433.0
429.0
426.0
423.0
419.0
415.0
410.0
406.0
402.0
398.0
396.0
394.0
392.0
391.0
390.0
390.0
389.0
388.0
387.0
386.0
385.0
384.0
385.0
386.0
387.0
390.0
392.0
394.0
396.0
397.0
400.0
406.0
416.0
428.0
441.0
456.0
470.0
483.0
494.0
505.0
512.0
516.0
517.0
516.0
513.0
510.0
506.0
501.0
495.0
488.0
483.0
477.0
473.0
467.0
461.0
454.0
446.0
439.0
432.0
428.0
427.0
427.0
427.0
430.0
432.0
433.0
436.0
440.0
443.0
447.0
449.0
453.0
454.0
456.0
456.0
456.0
453.0
449.0
445.0
440.0
436.0
432.0
427.0
422.0
418.0
415.0
412.0
410.0
408.0
405.0
402.0
399.0
395.0
393.0
391.0
390.0
389.0
389.0
390.0
392.0
393.0
396.0
397.0
398.0
400.0
400.0
402.0
407.0
415.0
426.0
440.0
454.0
468.0
481.0
493.0
502.0
510.0
516.0
517.0
518.0
516.0
512.0
508.0
504.0
499.0
493.0
485.0
479.0
473.0
468.0
462.0
458.0
452.0
446.0
441.0
435.0
430.0
427.0
425.0
425.0
426.0
429.0
432.0
437.0
442.0
447.0
452.0
456.0
459.0
460.0
461.0
460.0
458.0
454.0
449.0
446.0
441.0
437.0
434.0
431.0
427.0
425.0
422.0
418.0
415.0
412.0
408.0
406.0
403.0
400.0
398.0
396.0
394.0
392.0
391.0
390.0
390.0
390.0
391.0
392.0
394.0
397.0
403.0
412.0
423.0
436.0
450.0
461.0
472.0
482.0
491.0
500.0
507.0
512.0
515.0
516.0
515.0
511.0
506.0
501.0
494.0
486.0
479.0
471.0
465.0
460.0
455.0
451.0
446.0
440.0
436.0
432.0
431.0
429.0
428.0
430.0
431.0
434.0
439.0
444.0
450.0
454.0
458.0
460.0
462.0
461.0
460.0
457.0
455.0
451.0
447.0
443.0
440.0
436.0
432.0
427.0
422.0
418.0
414.0
411.0
407.0
404.0
400.0
399.0
397.0
395.0
394.0
393.0
392.0
390.0
387.0
387.0
387.0
388.0
389.0
392.0
394.0
399.0
407.0
417.0
428.0
441.0
453.0
465.0
477.0
488.0
496.0
503.0
508.0
510.0
509.0
506.0
501.0
495.0
488.0
482.0
475.0
469.0
463.0
460.0
455.0
449.0
443.0
434.0
426.0
419.0
413.0
412.0
413.0
415.0
420.0
426.0
431.0
435.0
440.0
444.0
446.0
448.0
449.0
449.0
449.0
448.0
447.0
446.0
443.0
440.0
437.0
433.0
429.0
425.0
421.0
417.0
413.0
409.0
406.0
404.0
403.0
401.0
400.0
399.0
398.0
397.0
395.0
394.0
393.0
392.0
391.0
393.0
394.0
396.0
399.0
404.0
411.0
419.0
429.0
441.0
451.0
460.0
469.0
478.0
485.0
491.0
495.0
497.0
497.0
494.0
490.0
483.0
476.0
468.0
461.0
454.0
449.0
443.0
438.0
431.0
425.0
417.0
409.0
403.0
398.0
395.0
395.0
397.0
400.0
405.0
411.0
416.0
421.0
425.0
429.0
431.0
432.0
431.0
430.0
428.0
425.0
422.0
420.0
417.0
413.0
409.0
405.0
401.0
397.0
394.0
391.0
388.0
385.0
382.0
380.0
378.0
377.0
376.0
374.0
372.0
370.0
370.0
370.0
370.0
372.0
374.0
375.0
377.0
380.0
384.0
390.0
400.0
410.0
421.0
432.0
444.0
455.0
464.0
471.0
476.0
478.0
479.0
477.0
474.0
469.0
465.0
459.0
454.0
448.0
443.0
438.0
432.0
425.0
417.0
410.0
403.0
398.0
395.0
394.0
396.0
400.0
404.0
410.0
417.0
424.0
430.0
434.0
439.0
442.0
443.0
444.0
443.0
441.0
440.0
437.0
434.0
432.0
429.0
425.0
421.0
416.0
410.0
405.0
401.0
398.0
396.0
394.0
392.0
390.0
388.0
386.0
384.0
383.0
383.0
382.0
383.0
384.0
385.0
387.0
390.0
396.0
404.0
414.0
427.0
439.0
451.0
462.0
471.0
478.0
483.0
487.0
489.0
489.0
486.0
482.0
477.0
471.0
465.0
458.0
452.0
446.0
440.0
434.0
428.0
422.0
415.0
409.0
405.0
403.0
402.0
403.0
405.0
407.0
410.0
414.0
418.0
421.0
425.0
429.0
432.0
434.0
434.0
434.0
432.0
430.0
427.0
423.0
420.0
417.0
414.0
411.0
408.0
404.0
401.0
397.0
393.0
390.0
388.0
386.0
384.0
383.0
382.0
381.0
381.0
380.0
379.0
378.0
378.0
379.0
383.0
391.0
401.0
414.0
426.0
438.0
450.0
461.0
469.0
475.0
477.0
477.0
475.0
470.0
466.0
461.0
458.0
453.0
449.0
444.0
438.0
432.0
426.0
419.0
412.0
405.0
400.0
394.0
392.0
390.0
391.0
393.0
394.0
395.0
397.0
400.0
403.0
407.0
410.0
413.0
413.0
413.0
411.0
409.0
406.0
402.0
398.0
394.0
390.0
384.0
380.0
377.0
374.0
371.0
368.0
365.0
364.0
362.0
361.0
360.0
359.0
358.0
357.0
356.0
357.0
357.0
359.0
361.0
366.0
374.0
385.0
397.0
408.0
421.0
432.0
441.0
447.0
453.0
457.0
458.0
457.0
455.0
451.0
447.0
444.0
439.0
436.0
432.0
429.0
425.0
420.0
416.0
412.0
407.0
403.0
400.0
398.0
397.0
399.0
401.0
404.0
406.0
408.0
411.0
415.0
417.0
419.0
420.0
421.0
421.0
421.0
420.0
418.0
417.0
414.0
412.0
409.0
406.0
404.0
402.0
400.0
397.0
394.0
392.0
390.0
388.0
388.0
386.0
386.0
386.0
386.0
387.0
388.0
390.0
392.0
396.0
404.0
415.0
427.0
439.0
452.0
463.0
472.0
479.0
484.0
488.0
489.0
489.0
486.0
482.0
477.0
473.0
469.0
465.0
461.0
456.0
452.0
447.0
443.0
439.0
435.0
431.0
427.0
424.0
424.0
424.0
426.0
428.0
431.0
434.0
437.0
440.0
442.0
443.0
444.0
444.0
444.0
442.0
441.0
438.0
435.0
433.0
431.0
428.0
423.0
420.0
418.0
417.0
415.0
413.0
412.0
410.0
408.0
406.0
405.0
405.0
404.0
404.0
404.0
404.0
406.0
409.0
415.0
423.0
432.0
443.0
455.0
467.0
478.0
485.0
493.0
497.0
499.0
499.0
497.0
495.0
490.0
484.0
479.0
474.0
467.0
463.0
461.0
457.0
454.0
451.0
448.0
444.0
440.0
438.0
436.0
436.0
436.0
436.0
438.0
439.0
443.0
446.0
449.0
452.0
453.0
453.0
453.0
452.0
450.0
447.0
445.0
441.0
439.0
437.0
435.0
433.0
431.0
429.0
427.0
424.0
421.0
419.0
417.0
414.0
412.0
410.0
410.0
409.0
410.0
411.0
412.0
412.0
414.0
418.0
425.0
434.0
445.0
457.0
470.0
483.0
493.0
501.0
507.0
510.0
510.0
509.0
505.0
501.0
497.0
493.0
488.0
484.0
480.0
476.0
472.0
469.0
466.0
462.0
457.0
452.0
447.0
445.0
444.0
444.0
446.0
447.0
449.0
450.0
451.0
452.0
453.0
453.0
454.0
455.0
455.0
454.0
452.0
450.0
448.0
443.0
439.0
436.0
433.0
431.0
428.0
424.0
423.0
421.0
420.0
417.0
417.0
416.0
415.0
414.0
414.0
413.0
411.0
411.0
411.0
410.0
410.0
410.0
410.0
411.0
411.0
412.0
415.0
420.0
429.0
441.0
453.0
466.0
478.0
488.0
498.0
505.0
509.0
510.0
510.0
508.0
504.0
500.0
496.0
490.0
485.0
481.0
479.0
476.0
474.0
472.0
469.0
465.0
462.0
459.0
456.0
454.0
452.0
451.0
451.0
452.0
453.0
453.0
454.0
454.0
454.0
455.0
456.0
455.0
455.0
454.0
453.0
450.0
446.0
442.0
439.0
434.0
431.0
429.0
427.0
425.0
423.0
421.0
420.0
419.0
417.0
417.0
415.0
413.0
412.0
412.0
412.0
413.0
414.0
414.0
413.0
413.0
412.0
412.0
411.0
410.0
409.0
407.0
407.0
406.0
406.0
405.0
405.0
405.0
405.0
408.0
414.0
423.0
436.0
451.0
465.0
479.0
490.0
498.0
504.0
506.0
507.0
504.0
501.0
498.0
494.0
490.0
486.0
483.0
479.0
477.0
476.0
474.0
471.0
468.0
466.0
462.0
458.0
454.0
452.0
450.0
449.0
448.0
447.0
448.0
449.0
451.0
453.0
454.0
455.0
454.0
454.0
453.0
451.0
449.0
447.0
444.0
440.0
438.0
435.0
432.0
429.0
427.0
425.0
423.0
421.0
419.0
418.0
417.0
416.0
415.0
414.0
413.0
412.0
410.0
410.0
410.0
410.0
409.0
410.0
411.0
410.0
410.0
410.0
409.0
407.0
407.0
406.0
404.0
404.0
402.0
402.0
401.0
400.0
399.0
398.0
398.0
396.0
394.0
393.0
394.0
395.0
399.0
409.0
421.0
436.0
450.0
464.0
475.0
483.0
488.0
492.0
492.0
492.0
490.0
486.0
482.0
477.0
473.0
468.0
464.0
460.0
457.0
455.0
452.0
449.0
446.0
443.0
441.0
438.0
435.0
434.0
433.0
432.0
432.0
434.0
435.0
436.0
437.0
438.0
437.0
438.0
438.0
437.0
434.0
432.0
429.0
427.0
424.0
422.0
419.0
417.0
414.0
412.0
409.0
407.0
405.0
401.0
398.0
397.0
396.0
395.0
394.0
394.0
393.0
393.0
393.0
394.0
395.0
394.0
393.0
393.0
392.0
392.0
390.0
391.0
389.0
389.0
389.0
390.0
389.0
388.0
387.0
386.0
385.0
384.0
383.0
381.0
381.0
380.0
379.0
379.0
378.0
378.0
378.0
379.0
383.0
392.0
404.0
417.0
431.0
443.0
455.0
463.0
470.0
473.0
474.0
474.0
472.0
468.0
464.0
461.0
457.0
453.0
450.0
448.0
446.0
443.0
441.0
439.0
435.0
432.0
428.0
425.0
423.0
423.0
423.0
424.0
426.0
427.0
429.0
430.0
432.0
433.0
434.0
435.0
434.0
434.0
433.0
432.0
431.0
429.0
427.0
425.0
422.0
420.0
418.0
416.0
413.0
411.0
408.0
407.0
406.0
404.0
403.0
403.0
402.0
401.0
400.0
400.0
399.0
399.0
399.0
400.0
399.0
400.0
400.0
399.0
399.0
399.0
398.0
398.0
398.0
398.0
398.0
398.0
398.0
397.0
396.0
394.0
394.0
393.0
392.0
391.0
389.0
388.0
387.0
387.0
386.0
387.0
386.0
385.0
387.0
391.0
400.0
413.0
427.0
441.0
455.0
467.0
477.0
485.0
490.0
492.0
493.0
491.0
489.0
485.0
481.0
477.0
473.0
469.0
466.0
463.0
460.0
458.0
456.0
454.0
451.0
450.0
447.0
444.0
444.0
444.0
444.0
445.0
445.0
447.0
448.0
450.0
451.0
453.0
455.0
455.0
456.0
456.0
455.0
453.0
451.0
449.0
446.0
443.0
439.0
437.0
435.0
432.0
430.0
429.0
428.0
426.0
424.0
422.0
421.0
420.0
419.0
420.0
419.0
419.0
419.0
419.0
418.0
417.0
417.0
416.0
417.0
417.0
417.0
418.0
418.0
418.0
418.0
418.0
418.0
417.0
415.0
414.0
414.0
412.0
411.0
410.0
408.0
406.0
405.0
404.0
403.0
402.0
402.0
400.0
399.0
398.0
399.0
399.0
404.0
414.0
426.0
441.0
457.0
471.0
484.0
495.0
503.0
508.0
511.0
513.0
514.0
512.0
508.0
504.0
500.0
495.0
490.0
486.0
482.0
478.0
475.0
473.0
471.0
468.0
466.0
464.0
461.0
459.0
457.0
457.0
457.0
458.0
459.0
461.0
461.0
463.0
464.0
465.0
467.0
468.0
467.0
466.0
465.0
464.0
462.0
460.0
457.0
453.0
449.0
446.0
443.0
440.0
438.0
435.0
433.0
431.0
429.0
428.0
427.0
426.0
425.0
423.0
421.0
420.0
420.0
420.0
420.0
420.0
420.0
420.0
419.0
419.0
418.0
418.0
417.0
416.0
415.0
415.0
414.0
413.0
413.0
413.0
411.0
410.0
408.0
406.0
405.0
403.0
402.0
401.0
399.0
400.0
400.0
400.0
401.0
405.0
413.0
424.0
436.0
448.0
460.0
470.0
479.0
486.0
490.0
494.0
495.0
492.0
489.0
485.0
480.0
475.0
470.0
465.0
462.0
458.0
455.0
453.0
449.0
445.0
440.0
435.0
431.0
427.0
426.0
425.0
426.0
428.0
430.0
433.0
436.0
439.0
442.0
443.0
444.0
445.0
445.0
444.0
443.0
441.0
439.0
438.0
435.0
433.0
429.0
426.0
421.0
418.0
415.0
413.0
411.0
409.0
408.0
407.0
406.0
406.0
404.0
403.0
402.0
400.0
399.0
399.0
399.0
398.0
398.0
399.0
400.0
400.0
400.0
401.0
400.0
400.0
399.0
398.0
398.0
397.0
396.0
397.0
397.0
396.0
395.0
394.0
393.0
392.0
392.0
392.0
397.0
405.0
416.0
429.0
442.0
454.0
465.0
474.0
481.0
485.0
488.0
489.0
488.0
486.0
484.0
480.0
475.0
471.0
467.0
462.0
459.0
456.0
453.0
451.0
448.0
445.0
441.0
438.0
434.0
432.0
430.0
430.0
431.0
432.0
436.0
439.0
443.0
446.0
449.0
450.0
452.0
452.0
451.0
451.0
448.0
446.0
444.0
442.0
439.0
436.0
433.0
430.0
427.0
425.0
422.0
420.0
418.0
414.0
413.0
411.0
410.0
408.0
407.0
407.0
407.0
406.0
406.0
406.0
406.0
407.0
408.0
408.0
409.0
409.0
408.0
408.0
408.0
407.0
405.0
404.0
404.0
403.0
404.0
405.0
405.0
406.0
408.0
412.0
421.0
432.0
445.0
458.0
470.0
479.0
489.0
496.0
502.0
506.0
507.0
507.0
505.0
503.0
500.0
496.0
491.0
487.0
482.0
479.0
476.0
473.0
470.0
468.0
464.0
461.0
456.0
453.0
450.0
448.0
448.0
449.0
451.0
453.0
455.0
460.0
463.0
465.0
466.0
468.0
468.0
468.0
466.0
466.0
465.0
462.0
460.0
458.0
455.0
451.0
448.0
445.0
442.0
439.0
436.0
434.0
432.0
430.0
428.0
428.0
426.0
426.0
426.0
425.0
424.0
424.0
423.0
423.0
423.0
422.0
422.0
421.0
421.0
421.0
421.0
422.0
422.0
421.0
421.0
422.0
422.0
426.0
433.0
443.0
455.0
467.0
479.0
491.0
501.0
509.0
514.0
519.0
520.0
520.0
518.0
516.0
512.0
507.0
503.0
498.0
493.0
488.0
486.0
483.0
480.0
477.0
474.0
469.0
465.0
461.0
459.0
458.0
457.0
458.0
459.0
461.0
463.0
465.0
467.0
470.0
471.0
473.0
473.0
474.0
474.0
474.0
472.0
471.0
468.0
466.0
463.0
461.0
458.0
455.0
451.0
449.0
445.0
443.0
440.0
438.0
436.0
434.0
433.0
433.0
432.0
432.0
432.0
432.0
431.0
430.0
428.0
428.0
427.0
427.0
425.0
425.0
425.0
425.0
425.0
426.0
426.0
429.0
433.0
441.0
452.0
463.0
473.0
485.0
496.0
504.0
510.0
515.0
518.0
519.0
517.0
514.0
510.0
505.0
501.0
497.0
491.0
486.0
482.0
479.0
475.0
471.0
467.0
464.0
460.0
457.0
454.0
453.0
454.0
454.0
454.0
455.0
456.0
457.0
459.0
461.0
463.0
464.0
464.0
464.0
464.0
462.0
460.0
458.0
454.0
451.0
448.0
445.0
441.0
438.0
434.0
431.0
428.0
426.0
424.0
422.0
420.0
418.0
417.0
416.0
415.0
415.0
413.0
412.0
411.0
410.0
408.0
406.0
405.0
403.0
402.0
402.0
401.0
402.0
403.0
404.0
406.0
411.0
417.0
427.0
436.0
446.0
455.0
463.0
469.0
474.0
478.0
479.0
478.0
475.0
471.0
466.0
461.0
456.0
452.0
448.0
443.0
440.0
436.0
432.0
428.0
424.0
418.0
412.0
408.0
405.0
403.0
403.0
404.0
407.0
408.0
412.0
415.0
419.0
421.0
423.0
423.0
424.0
424.0
423.0
422.0
420.0
416.0
414.0
412.0
409.0
406.0
404.0
403.0
401.0
398.0
396.0
394.0
391.0
389.0
387.0
386.0
385.0
383.0
383.0
382.0
383.0
382.0
384.0
385.0
385.0
385.0
385.0
386.0
387.0
388.0
388.0
391.0
397.0
405.0
416.0
428.0
440.0
452.0
462.0
470.0
475.0
478.0
480.0
479.0
477.0
475.0
471.0
468.0
464.0
460.0
457.0
454.0
451.0
448.0
445.0
442.0
438.0
434.0
431.0
429.0
426.0
425.0
426.0
426.0
427.0
428.0
431.0
433.0
435.0
439.0
442.0
445.0
446.0
446.0
445.0
443.0
442.0
440.0
438.0
435.0
432.0
429.0
426.0
423.0
419.0
417.0
415.0
411.0
410.0
408.0
408.0
407.0
406.0
405.0
404.0
403.0
403.0
402.0
402.0
402.0
402.0
403.0
404.0
405.0
406.0
406.0
408.0
411.0
417.0
426.0
437.0
449.0
462.0
473.0
483.0
490.0
495.0
498.0
499.0
499.0
497.0
494.0
490.0
485.0
481.0
476.0
471.0
466.0
462.0
460.0
456.0
454.0
452.0
448.0
447.0
445.0
443.0
442.0
442.0
441.0
442.0
443.0
445.0
447.0
450.0
452.0
455.0
456.0
457.0
456.0
455.0
453.0
450.0
446.0
443.0
440.0
437.0
434.0
432.0
429.0
427.0
425.0
424.0
422.0
421.0
419.0
419.0
417.0
417.0
416.0
415.0
414.0
413.0
412.0
411.0
411.0
410.0
409.0
410.0
411.0
412.0
413.0
414.0
416.0
419.0
426.0
435.0
445.0
457.0
469.0
480.0
490.0
498.0
505.0
508.0
509.0
508.0
505.0
501.0
496.0
492.0
486.0
483.0
480.0
477.0
475.0
474.0
471.0
468.0
465.0
461.0
456.0
452.0
449.0
449.0
449.0
450.0
452.0
454.0
456.0
458.0
460.0
462.0
463.0
462.0
461.0
461.0
460.0
459.0
458.0
457.0
456.0
454.0
451.0
448.0
444.0
439.0
434.0
431.0
428.0
426.0
425.0
425.0
424.0
424.0
423.0
423.0
422.0
422.0
421.0
421.0
421.0
420.0
419.0
419.0
419.0
418.0
418.0
418.0
418.0
419.0
418.0
419.0
420.0
424.0
430.0
439.0
449.0
461.0
474.0
486.0
497.0
506.0
513.0
516.0
517.0
515.0
511.0
507.0
503.0
496.0
490.0
484.0
479.0
474.0
470.0
466.0
461.0
455.0
451.0
446.0
442.0
439.0
437.0
437.0
437.0
437.0
438.0
441.0
443.0
445.0
446.0
449.0
450.0
451.0
450.0
449.0
446.0
443.0
440.0
438.0
434.0
431.0
427.0
425.0
421.0
418.0
415.0
413.0
410.0
408.0
407.0
405.0
403.0
402.0
402.0
402.0
402.0
401.0
400.0
400.0
399.0
399.0
399.0
399.0
399.0
399.0
399.0
400.0
401.0
402.0
402.0
402.0
403.0
406.0
413.0
422.0
434.0
446.0
458.0
470.0
480.0
489.0
495.0
499.0
499.0
498.0
496.0
494.0
490.0
486.0
482.0
478.0
474.0
470.0
465.0
461.0
458.0
453.0
449.0
445.0
441.0
437.0
436.0
437.0
438.0
440.0
442.0
445.0
447.0
450.0
452.0
453.0
455.0
455.0
455.0
455.0
454.0
452.0
450.0
449.0
446.0
443.0
439.0
437.0
433.0
431.0
428.0
426.0
423.0
421.0
420.0
419.0
418.0
418.0
417.0
416.0
416.0
416.0
416.0
416.0
416.0
416.0
415.0
415.0
414.0
414.0
413.0
414.0
413.0
413.0
413.0
415.0
416.0
417.0
420.0
424.0
432.0
443.0
455.0
469.0
481.0
493.0
503.0
512.0
518.0
521.0
522.0
521.0
518.0
513.0
507.0
501.0
496.0
492.0
488.0
485.0
482.0
479.0
477.0
473.0
470.0
465.0
460.0
457.0
455.0
454.0
454.0
455.0
457.0
459.0
461.0
464.0
466.0
468.0
469.0
470.0
470.0
468.0
467.0
465.0
464.0
461.0
457.0
455.0
452.0
449.0
445.0
440.0
437.0
434.0
431.0
430.0
429.0
428.0
428.0
427.0
427.0
427.0
426.0
425.0
423.0
422.0
421.0
420.0
420.0
419.0
418.0
419.0
419.0
418.0
418.0
419.0
418.0
417.0
417.0
418.0
419.0
424.0
431.0
442.0
454.0
468.0
482.0
495.0
506.0
515.0
522.0
526.0
529.0
529.0
528.0
525.0
521.0
516.0
511.0
505.0
500.0
496.0
493.0
491.0
487.0
482.0
476.0
469.0
462.0
457.0
452.0
449.0
449.0
448.0
450.0
452.0
454.0
454.0
456.0
457.0
458.0
458.0
458.0
457.0
455.0
453.0
450.0
446.0
443.0
440.0
435.0
433.0
430.0
427.0
425.0
422.0
420.0
417.0
414.0
411.0
410.0
408.0
407.0
407.0
406.0
405.0
404.0
404.0
403.0
403.0
403.0
403.0
402.0
401.0
402.0
402.0
401.0
401.0
401.0
401.0
401.0
403.0
406.0
413.0
422.0
432.0
444.0
456.0
468.0
479.0
486.0
492.0
495.0
497.0
497.0
496.0
494.0
490.0
485.0
478.0
471.0
465.0
460.0
455.0
451.0
447.0
443.0
439.0
434.0
430.0
427.0
426.0
425.0
425.0
427.0
429.0
432.0
434.0
434.0
437.0
438.0
440.0
440.0
441.0
441.0
440.0
439.0
436.0
434.0
431.0
428.0
424.0
421.0
417.0
414.0
412.0
410.0
408.0
406.0
407.0
405.0
403.0
402.0
401.0
401.0
400.0
400.0
400.0
400.0
400.0
401.0
401.0
402.0
402.0
400.0
399.0
398.0
397.0
397.0
397.0
396.0
397.0
398.0
402.0
409.0
420.0
431.0
445.0
458.0
471.0
483.0
491.0
498.0
502.0
503.0
501.0
498.0
494.0
488.0
484.0
479.0
474.0
469.0
466.0
463.0
459.0
456.0
453.0
449.0
445.0
441.0
439.0
439.0
439.0
439.0
439.0
440.0
443.0
445.0
447.0
449.0
450.0
452.0
454.0
454.0
454.0
452.0
451.0
449.0
445.0
441.0
439.0
435.0
431.0
429.0
426.0
424.0
423.0
420.0
417.0
416.0
413.0
412.0
412.0
412.0
410.0
410.0
411.0
412.0
412.0
411.0
411.0
410.0
409.0
408.0
408.0
408.0
408.0
406.0
408.0
409.0
409.0
410.0
412.0
416.0
422.0
432.0
444.0
456.0
470.0
481.0
493.0
502.0
506.0
510.0
510.0
508.0
504.0
501.0
496.0
491.0
487.0
482.0
479.0
477.0
473.0
469.0
466.0
462.0
457.0
453.0
449.0
445.0
443.0
442.0
443.0
445.0
447.0
449.0
453.0
455.0
459.0
462.0
463.0
465.0
466.0
465.0
463.0
462.0
460.0
458.0
456.0
453.0
448.0
444.0
442.0
439.0
435.0
432.0
429.0
426.0
424.0
422.0
421.0
420.0
418.0
418.0
417.0
417.0
417.0
417.0
416.0
416.0
415.0
415.0
414.0
414.0
413.0
413.0
414.0
414.0
413.0
413.0
414.0
415.0
417.0
423.0
433.0
443.0
455.0
466.0
478.0
486.0
493.0
497.0
500.0
500.0
499.0
497.0
493.0
489.0
485.0
480.0
476.0
471.0
466.0
461.0
456.0
451.0
446.0
440.0
436.0
433.0
430.0
430.0
432.0
433.0
435.0
438.0
441.0
445.0
448.0
452.0
454.0
456.0
456.0
456.0
455.0
454.0
452.0
449.0
446.0
442.0
438.0
433.0
430.0
426.0
423.0
420.0
417.0
415.0
414.0
412.0
410.0
409.0
407.0
405.0
403.0
403.0
401.0
400.0
400.0
401.0
400.0
400.0
401.0
401.0
402.0
402.0
402.0
402.0
403.0
405.0
410.0
418.0
429.0
439.0
451.0
462.0
473.0
481.0
489.0
493.0
497.0
498.0
497.0
495.0
492.0
486.0
481.0
475.0
471.0
466.0
462.0
459.0
455.0
451.0
447.0
442.0
437.0
432.0
430.0
429.0
428.0
429.0
431.0
434.0
436.0
440.0
444.0
447.0
449.0
452.0
454.0
456.0
456.0
455.0
454.0
451.0
448.0
445.0
442.0
439.0
434.0
431.0
429.0
426.0
425.0
423.0
421.0
420.0
419.0
416.0
416.0
415.0
415.0
415.0
416.0
415.0
414.0
414.0
414.0
414.0
415.0
415.0
416.0
417.0
418.0
420.0
423.0
430.0
439.0
449.0
459.0
471.0
482.0
491.0
499.0
505.0
508.0
508.0
507.0
504.0
501.0
497.0
492.0
487.0
482.0
477.0
474.0
471.0
467.0
464.0
460.0
457.0
452.0
448.0
445.0
442.0
441.0
442.0
443.0
445.0
447.0
451.0
454.0
457.0
458.0
459.0
460.0
460.0
459.0
459.0
458.0
456.0
454.0
452.0
450.0
447.0
443.0
440.0
436.0
433.0
431.0
429.0
428.0
427.0
426.0
426.0
425.0
424.0
424.0
422.0
422.0
422.0
421.0
420.0
420.0
420.0
420.0
420.0
421.0
422.0
423.0
424.0
426.0
430.0
437.0
446.0
457.0
470.0
483.0
494.0
505.0
514.0
520.0
523.0
525.0
525.0
523.0
520.0
516.0
511.0
506.0
501.0
496.0
492.0
487.0
485.0
482.0
479.0
475.0
471.0
468.0
465.0
464.0
462.0
462.0
462.0
463.0
466.0
468.0
471.0
475.0
476.0
478.0
479.0
478.0
477.0
477.0
475.0
473.0
471.0
469.0
467.0
465.0
462.0
459.0
456.0
452.0
449.0
447.0
445.0
443.0
442.0
440.0
439.0
439.0
439.0
439.0
439.0
438.0
437.0
436.0
436.0
435.0
435.0
436.0
436.0
436.0
437.0
439.0
440.0
441.0
443.0
447.0
455.0
467.0
479.0
492.0
505.0
516.0
525.0
533.0
538.0
540.0
540.0
539.0
536.0
531.0
526.0
521.0
515.0
509.0
504.0
499.0
495.0
492.0
489.0
485.0
481.0
477.0
473.0
471.0
469.0
469.0
469.0
471.0
472.0
473.0
475.0
479.0
482.0
483.0
483.0
483.0
481.0
480.0
478.0
475.0
473.0
470.0
467.0
465.0
461.0
457.0
453.0
450.0
447.0
445.0
441.0
439.0
438.0
437.0
435.0
433.0
432.0
431.0
430.0
429.0
428.0
427.0
427.0
427.0
427.0
426.0
426.0
425.0
424.0
424.0
423.0
422.0
422.0
422.0
423.0
427.0
434.0
441.0
452.0
464.0
476.0
487.0
498.0
507.0
513.0
516.0
517.0
517.0
512.0
508.0
502.0
497.0
491.0
486.0
481.0
477.0
474.0
471.0
466.0
462.0
457.0
453.0
448.0
445.0
443.0
442.0
442.0
444.0
446.0
449.0
452.0
455.0
457.0
460.0
461.0
462.0
461.0
460.0
457.0
455.0
452.0
448.0
445.0
442.0
439.0
436.0
434.0
431.0
428.0
427.0
425.0
423.0
422.0
420.0
419.0
418.0
418.0
417.0
416.0
415.0
415.0
414.0
413.0
413.0
413.0
413.0
412.0
413.0
414.0
415.0
416.0
416.0
417.0
418.0
420.0
427.0
435.0
446.0
458.0
470.0
481.0
492.0
500.0
506.0
510.0
511.0
508.0
506.0
503.0
500.0
496.0
492.0
488.0
483.0
478.0
474.0
470.0
466.0
462.0
459.0
455.0
450.0
447.0
445.0
444.0
446.0
447.0
450.0
452.0
455.0
457.0
460.0
462.0
463.0
464.0
464.0
462.0
461.0
458.0
456.0
454.0
452.0
449.0
446.0
444.0
441.0
439.0
436.0
433.0
430.0
426.0
424.0
422.0
421.0
420.0
419.0
418.0
419.0
418.0
418.0
418.0
417.0
417.0
416.0
415.0
414.0
412.0
413.0
412.0
412.0
412.0
413.0
413.0
415.0
418.0
425.0
433.0
443.0
454.0
464.0
474.0
482.0
489.0
495.0
499.0
501.0
502.0
502.0
501.0
497.0
491.0
486.0
481.0
475.0
470.0
467.0
462.0
459.0
455.0
451.0
447.0
444.0
441.0
439.0
437.0
438.0
438.0
440.0
443.0
445.0
447.0
451.0
454.0
456.0
456.0
457.0
456.0
454.0
452.0
451.0
449.0
447.0
446.0
444.0
442.0
439.0
437.0
435.0
432.0
430.0
429.0
427.0
426.0
426.0
424.0
423.0
422.0
420.0
419.0
420.0
420.0
421.0
421.0
421.0
422.0
421.0
420.0
419.0
419.0
418.0
419.0
419.0
419.0
420.0
422.0
428.0
438.0
448.0
461.0
475.0
487.0
498.0
506.0
513.0
517.0
518.0
517.0
514.0
510.0
506.0
501.0
497.0
492.0
487.0
482.0
478.0
474.0
469.0
465.0
461.0
456.0
450.0
446.0
443.0
442.0
441.0
441.0
443.0
445.0
447.0
449.0
451.0
452.0
453.0
451.0
450.0
449.0
447.0
445.0
442.0
439.0
436.0
433.0
430.0
427.0
422.0
418.0
415.0
412.0
410.0
407.0
404.0
403.0
401.0
398.0
398.0
398.0
398.0
398.0
399.0
399.0
399.0
398.0
398.0
398.0
398.0
398.0
397.0
398.0
399.0
399.0
401.0
402.0
405.0
410.0
419.0
431.0
444.0
458.0
471.0
483.0
492.0
500.0
505.0
507.0
507.0
505.0
502.0
498.0
493.0
488.0
482.0
477.0
472.0
467.0
463.0
460.0
457.0
453.0
451.0
447.0
444.0
441.0
440.0
439.0
439.0
441.0
443.0
446.0
448.0
450.0
453.0
455.0
456.0
456.0
456.0
454.0
451.0
449.0
446.0
444.0
441.0
438.0
435.0
431.0
428.0
425.0
422.0
419.0
417.0
414.0
413.0
411.0
410.0
410.0
410.0
409.0
409.0
408.0
408.0
407.0
407.0
406.0
405.0
405.0
404.0
404.0
405.0
405.0
407.0
407.0
409.0
409.0
411.0
417.0
426.0
437.0
450.0
464.0
478.0
489.0
498.0
506.0
511.0
514.0
513.0
511.0
508.0
505.0
502.0
497.0
492.0
488.0
483.0
479.0
475.0
471.0
466.0
461.0
456.0
452.0
448.0
445.0
445.0
446.0
447.0
448.0
451.0
454.0
456.0
459.0
461.0
462.0
463.0
463.0
462.0
461.0
460.0
458.0
455.0
452.0
448.0
444.0
441.0
438.0
435.0
431.0
428.0
426.0
425.0
423.0
420.0
418.0
416.0
414.0
413.0
412.0
412.0
413.0
414.0
415.0
416.0
416.0
415.0
413.0
412.0
411.0
410.0
408.0
408.0
409.0
410.0
412.0
414.0
418.0
426.0
436.0
448.0
459.0
471.0
481.0
490.0
497.0
502.0
504.0
505.0
505.0
502.0
498.0
494.0
489.0
484.0
480.0
476.0
471.0
467.0
464.0
459.0
454.0
449.0
443.0
439.0
435.0
435.0
436.0
437.0
440.0
444.0
446.0
449.0
451.0
453.0
453.0
453.0
452.0
451.0
449.0
447.0
446.0
445.0
442.0
439.0
436.0
432.0
428.0
424.0
420.0
417.0
415.0
412.0
410.0
409.0
409.0
407.0
407.0
406.0
405.0
404.0
404.0
404.0
404.0
403.0
403.0
401.0
401.0
400.0
400.0
401.0
401.0
401.0
400.0
400.0
400.0
401.0
402.0
407.0
414.0
423.0
433.0
443.0
452.0
462.0
468.0
474.0
479.0
481.0
482.0
481.0
479.0
476.0
471.0
466.0
462.0
455.0
451.0
446.0
443.0
438.0
434.0
430.0
426.0
422.0
419.0
418.0
417.0
417.0
419.0
421.0
424.0
427.0
431.0
434.0
437.0
439.0
440.0
441.0
439.0
438.0
436.0
434.0
432.0
429.0
425.0
421.0
418.0
415.0
411.0
409.0
407.0
405.0
404.0
402.0
401.0
400.0
398.0
397.0
396.0
395.0
394.0
393.0
394.0
393.0
392.0
391.0
391.0
391.0
391.0
392.0
392.0
392.0
393.0
392.0
393.0
393.0
394.0
396.0
401.0
409.0
419.0
429.0
439.0
448.0
454.0
461.0
465.0
467.0
469.0
470.0
469.0
467.0
464.0
461.0
457.0
454.0
449.0
445.0
441.0
436.0
432.0
427.0
422.0
418.0
414.0
411.0
410.0
411.0
412.0
415.0
418.0
421.0
425.0
428.0
432.0
434.0
436.0
437.0
437.0
437.0
435.0
433.0
431.0
427.0
424.0
421.0
418.0
415.0
412.0
410.0
407.0
404.0
402.0
400.0
399.0
397.0
395.0
395.0
394.0
393.0
392.0
391.0
390.0
390.0
390.0
390.0
389.0
389.0
389.0
390.0
391.0
392.0
394.0
394.0
397.0
401.0
408.0
418.0
426.0
434.0
443.0
451.0
458.0
464.0
468.0
471.0
471.0
470.0
467.0
463.0
459.0
453.0
448.0
444.0
439.0
436.0
433.0
429.0
426.0
421.0
417.0
412.0
408.0
405.0
403.0
403.0
405.0
408.0
411.0
415.0
420.0
425.0
427.0
431.0
432.0
433.0
433.0
432.0
431.0
429.0
427.0
424.0
421.0
418.0
415.0
412.0
409.0
407.0
405.0
402.0
401.0
400.0
399.0
399.0
399.0
398.0
398.0
397.0
397.0
396.0
396.0
396.0
396.0
396.0
397.0
398.0
400.0
402.0
404.0
407.0
413.0
422.0
432.0
444.0
455.0
466.0
473.0
482.0
487.0
489.0
490.0
490.0
487.0
484.0
481.0
478.0
475.0
472.0
466.0
462.0
456.0
452.0
447.0
443.0
440.0
436.0
431.0
429.0
427.0
425.0
427.0
431.0
435.0
440.0
445.0
447.0
451.0
453.0
454.0
455.0
455.0
455.0
455.0
454.0
453.0
452.0
450.0
449.0
447.0
446.0
445.0
445.0
443.0
441.0
439.0
438.0
437.0
435.0
435.0
434.0
433.0
433.0
432.0
430.0
430.0
430.0
430.0
430.0
430.0
430.0
432.0
433.0
438.0
445.0
456.0
467.0
480.0
491.0
502.0
511.0
517.0
520.0
521.0
520.0
516.0
511.0
506.0
500.0
495.0
489.0
482.0
478.0
474.0
471.0
468.0
466.0
462.0
458.0
455.0
452.0
451.0
451.0
452.0
454.0
457.0
460.0
464.0
468.0
472.0
475.0
477.0
479.0
479.0
478.0
476.0
473.0
470.0
467.0
464.0
461.0
459.0
457.0
455.0
453.0
451.0
450.0
449.0
447.0
447.0
447.0
446.0
445.0
444.0
442.0
442.0
441.0
441.0
441.0
442.0
444.0
446.0
449.0
455.0
462.0
470.0
480.0
492.0
501.0
511.0
519.0
523.0
528.0
530.0
530.0
529.0
527.0
522.0
516.0
509.0
502.0
494.0
489.0
484.0
481.0
480.0
478.0
477.0
475.0
471.0
468.0
464.0
461.0
460.0
457.0
457.0
455.0
456.0
457.0
458.0
460.0
461.0
462.0
461.0
459.0
456.0
452.0
447.0
441.0
435.0
429.0
424.0
419.0
414.0
409.0
404.0
400.0
397.0
393.0
389.0
387.0
386.0
384.0
382.0
380.0
379.0
377.0
375.0
374.0
373.0
373.0
372.0
373.0
373.0
374.0
374.0
377.0
378.0
379.0
382.0
387.0
395.0
405.0
418.0
431.0
442.0
452.0
461.0
468.0
472.0
474.0
475.0
473.0
469.0
465.0
461.0
456.0
451.0
446.0
442.0
440.0
437.0
434.0
431.0
427.0
424.0
419.0
416.0
416.0
417.0
418.0
419.0
422.0
425.0
427.0
429.0
431.0
434.0
435.0
435.0
436.0
436.0
436.0
434.0
432.0
430.0
427.0
424.0
422.0
419.0
417.0
413.0
411.0
409.0
407.0
406.0
404.0
401.0
400.0
399.0
399.0
398.0
397.0
397.0
397.0
397.0
398.0
399.0
399.0
400.0
400.0
400.0
400.0
400.0
398.0
396.0
395.0
394.0
393.0
391.0
391.0
392.0
392.0
396.0
403.0
412.0
424.0
436.0
447.0
458.0
466.0
472.0
476.0
478.0
477.0
475.0
471.0
467.0
461.0
455.0
449.0
444.0
439.0
435.0
431.0
427.0
423.0
419.0
414.0
409.0
404.0
400.0
399.0
398.0
399.0
400.0
403.0
406.0
409.0
412.0
415.0
417.0
417.0
416.0
416.0
413.0
411.0
408.0
406.0
403.0
400.0
396.0
395.0
392.0
390.0
387.0
385.0
382.0
380.0
378.0
377.0
375.0
374.0
374.0
373.0
373.0
373.0
373.0
374.0
373.0
372.0
372.0
372.0
372.0
372.0
372.0
373.0
374.0
374.0
376.0
376.0
377.0
379.0
383.0
390.0
398.0
409.0
420.0
432.0
442.0
449.0
456.0
459.0
461.0
461.0
460.0
459.0
456.0
451.0
447.0
443.0
439.0
436.0
433.0
430.0
426.0
423.0
419.0
414.0
409.0
406.0
404.0
403.0
404.0
407.0
409.0
413.0
417.0
420.0
424.0
427.0
428.0
429.0
430.0
430.0
430.0
427.0
425.0
423.0
420.0
418.0
415.0
412.0
409.0
406.0
404.0
402.0
400.0
398.0
397.0
396.0
396.0
395.0
394.0
393.0
392.0
390.0
388.0
386.0
386.0
385.0
386.0
386.0
386.0
388.0
387.0
388.0
389.0
392.0
398.0
407.0
418.0
429.0
440.0
451.0
459.0
466.0
469.0
471.0
471.0
470.0
468.0
465.0
462.0
457.0
454.0
451.0
447.0
445.0
440.0
437.0
433.0
429.0
423.0
419.0
416.0
413.0
412.0
413.0
415.0
417.0
420.0
424.0
427.0
430.0
433.0
435.0
436.0
436.0
435.0
435.0
433.0
432.0
430.0
428.0
426.0
423.0
420.0
416.0
414.0
411.0
408.0
405.0
402.0
401.0
398.0
397.0
396.0
394.0
393.0
392.0
391.0
390.0
389.0
388.0
388.0
389.0
389.0
390.0
391.0
392.0
395.0
401.0
409.0
419.0
429.0
439.0
448.0
457.0
464.0
469.0
472.0
475.0
474.0
473.0
471.0
467.0
462.0
457.0
452.0
447.0
443.0
439.0
435.0
431.0
426.0
423.0
418.0
414.0
410.0
408.0
407.0
408.0
409.0
412.0
415.0
418.0
421.0
425.0
428.0
430.0
431.0
431.0
432.0
431.0
430.0
429.0
427.0
424.0
421.0
417.0
415.0
412.0
408.0
407.0
406.0
404.0
402.0
402.0
401.0
400.0
398.0
396.0
394.0
393.0
392.0
391.0
391.0
391.0
392.0
393.0
394.0
396.0
399.0
405.0
413.0
424.0
436.0
448.0
460.0
471.0
480.0
487.0
492.0
494.0
494.0
491.0
488.0
483.0
477.0
472.0
467.0
463.0
458.0
456.0
452.0
449.0
444.0
441.0
436.0
431.0
427.0
424.0
422.0
422.0
423.0
426.0
429.0
432.0
435.0
438.0
440.0
442.0
443.0
444.0
444.0
443.0
442.0
441.0
440.0
437.0
434.0
432.0
429.0
427.0
424.0
421.0
419.0
417.0
415.0
414.0
412.0
410.0
408.0
407.0
405.0
404.0
402.0
401.0
400.0
400.0
400.0
402.0
403.0
404.0
406.0
410.0
417.0
427.0
438.0
452.0
465.0
477.0
488.0
496.0
502.0
505.0
505.0
504.0
501.0
496.0
491.0
487.0
481.0
477.0
472.0
469.0
464.0
461.0
458.0
454.0
450.0
447.0
442.0
440.0
438.0
438.0
438.0
439.0
440.0
442.0
445.0
448.0
451.0
454.0
456.0
457.0
457.0
456.0
454.0
453.0
451.0
448.0
446.0
443.0
442.0
440.0
438.0
435.0
433.0
429.0
426.0
424.0
421.0
419.0
417.0
417.0
415.0
414.0
413.0
413.0
413.0
413.0
411.0
410.0
410.0
410.0
410.0
412.0
413.0
417.0
424.0
434.0
446.0
458.0
470.0
482.0
493.0
500.0
505.0
508.0
508.0
506.0
503.0
499.0
495.0
491.0
485.0
479.0
475.0
472.0
468.0
465.0
462.0
458.0
454.0
451.0
447.0
445.0
443.0
443.0
442.0
444.0
446.0
448.0
452.0
455.0
457.0
460.0
463.0
464.0
464.0
464.0
463.0
461.0
459.0
457.0
454.0
451.0
449.0
445.0
442.0
439.0
435.0
433.0
430.0
428.0
426.0
424.0
423.0
423.0
422.0
421.0
419.0
418.0
416.0
416.0
414.0
414.0
414.0
415.0
416.0
416.0
419.0
422.0
428.0
437.0
447.0
459.0
471.0
483.0
494.0
503.0
510.0
514.0
514.0
514.0
511.0
506.0
501.0
495.0
490.0
485.0
480.0
476.0
472.0
469.0
464.0
460.0
454.0
448.0
443.0
439.0
436.0
434.0
432.0
433.0
434.0
435.0
437.0
439.0
441.0
442.0
443.0
444.0
443.0
443.0
441.0
440.0
437.0
433.0
431.0
429.0
424.0
420.0
416.0
412.0
408.0
406.0
404.0
403.0
402.0
400.0
398.0
396.0
394.0
392.0
391.0
390.0
389.0
390.0
390.0
391.0
392.0
393.0
394.0
398.0
403.0
410.0
421.0
434.0
447.0
461.0
474.0
484.0
493.0
499.0
504.0
506.0
506.0
504.0
502.0
498.0
493.0
488.0
483.0
478.0
474.0
469.0
464.0
460.0
455.0
450.0
445.0
440.0
436.0
434.0
433.0
433.0
434.0
436.0
438.0
440.0
444.0
447.0
449.0
453.0
455.0
455.0
456.0
455.0
454.0
452.0
449.0
446.0
442.0
438.0
436.0
432.0
429.0
426.0
423.0
419.0
416.0
414.0
412.0
410.0
408.0
406.0
405.0
406.0
406.0
406.0
407.0
408.0
408.0
408.0
409.0
411.0
418.0
426.0
437.0
450.0
464.0
477.0
489.0
499.0
507.0
512.0
515.0
516.0
515.0
512.0
508.0
503.0
497.0
490.0
484.0
477.0
471.0
465.0
459.0
453.0
448.0
442.0
437.0
433.0
430.0
430.0
429.0
429.0
430.0
433.0
435.0
439.0
443.0
445.0
447.0
449.0
449.0
449.0
448.0
447.0
443.0
440.0
436.0
433.0
429.0
426.0
422.0
418.0
415.0
413.0
410.0
406.0
404.0
401.0
398.0
397.0
395.0
393.0
392.0
392.0
392.0
392.0
392.0
393.0
395.0
397.0
403.0
413.0
425.0
437.0
451.0
464.0
476.0
485.0
492.0
497.0
499.0
497.0
494.0
489.0
483.0
477.0
471.0
465.0
460.0
455.0
451.0
446.0
441.0
436.0
429.0
423.0
418.0
414.0
411.0
411.0
412.0
413.0
416.0
420.0
424.0
427.0
430.0
433.0
436.0
437.0
438.0
437.0
436.0
433.0
431.0
429.0
426.0
424.0
421.0
419.0
416.0
413.0
411.0
408.0
404.0
402.0
400.0
397.0
395.0
395.0
394.0
392.0
393.0
392.0
392.0
392.0
393.0
396.0
401.0
411.0
423.0
435.0
449.0
463.0
476.0
486.0
494.0
499.0
502.0
502.0
500.0
498.0
493.0
489.0
484.0
479.0
474.0
468.0
464.0
459.0
454.0
449.0
443.0
438.0
433.0
428.0
426.0
425.0
425.0
426.0
429.0
432.0
437.0
440.0
443.0
446.0
448.0
449.0
449.0
448.0
448.0
447.0
445.0
444.0
442.0
439.0
436.0
433.0
430.0
427.0
424.0
422.0
421.0
420.0
419.0
417.0
416.0
413.0
411.0
409.0
407.0
406.0
405.0
405.0
407.0
408.0
411.0
417.0
425.0
437.0
451.0
466.0
481.0
494.0
506.0
515.0
522.0
526.0
528.0
527.0
524.0
520.0
514.0
508.0
501.0
494.0
488.0
483.0
478.0
474.0
469.0
464.0
458.0
453.0
448.0
445.0
442.0
440.0
441.0
441.0
443.0
446.0
450.0
453.0
457.0
460.0
462.0
464.0
464.0
463.0
461.0
458.0
454.0
450.0
447.0
443.0
441.0
438.0
435.0
432.0
428.0
425.0
422.0
419.0
417.0
415.0
411.0
409.0
407.0
404.0
402.0
400.0
400.0
400.0
401.0
402.0
404.0
407.0
414.0
423.0
435.0
447.0
459.0
470.0
480.0
489.0
495.0
497.0
500.0
499.0
498.0
495.0
490.0
485.0
479.0
474.0
468.0
462.0
457.0
453.0
449.0
445.0
441.0
438.0
434.0
430.0
428.0
426.0
426.0
426.0
428.0
430.0
433.0
437.0
440.0
443.0
445.0
446.0
446.0
445.0
444.0
442.0
439.0
437.0
435.0
431.0
429.0
427.0
425.0
422.0
420.0
418.0
416.0
414.0
412.0
412.0
411.0
410.0
409.0
407.0
407.0
406.0
405.0
405.0
405.0
406.0
406.0
408.0
410.0
415.0
423.0
434.0
446.0
458.0
472.0
486.0
496.0
504.0
510.0
513.0
513.0
510.0
506.0
500.0
493.0
486.0
479.0
473.0
468.0
463.0
459.0
453.0
448.0
442.0
436.0
431.0
426.0
423.0
423.0
423.0
424.0
426.0
428.0
431.0
434.0
436.0
438.0
440.0
440.0
439.0
437.0
436.0
434.0
432.0
430.0
428.0
425.0
421.0
418.0
415.0
412.0
409.0
406.0
404.0
402.0
401.0
399.0
398.0
397.0
395.0
395.0
394.0
392.0
391.0
390.0
391.0
392.0
393.0
394.0
396.0
399.0
405.0
414.0
426.0
439.0
452.0
466.0
478.0
488.0
497.0
503.0
505.0
505.0
503.0
500.0
495.0
489.0
483.0
477.0
471.0
465.0
461.0
456.0
453.0
449.0
443.0
437.0
433.0
429.0
427.0
426.0
427.0
429.0
430.0
432.0
435.0
437.0
439.0
441.0
442.0
442.0
442.0
440.0
441.0
440.0
438.0
436.0
433.0
429.0
427.0
423.0
419.0
416.0
414.0
411.0
410.0
408.0
408.0
406.0
406.0
405.0
403.0
402.0
401.0
400.0
400.0
399.0
399.0
399.0
398.0
398.0
399.0
399.0
401.0
405.0
411.0
420.0
432.0
446.0
459.0
472.0
484.0
493.0
500.0
504.0
505.0
504.0
502.0
498.0
491.0
486.0
480.0
476.0
472.0
468.0
465.0
462.0
458.0
453.0
449.0
444.0
439.0
435.0
433.0
432.0
433.0
434.0
438.0
442.0
444.0
447.0
448.0
450.0
450.0
449.0
448.0
446.0
444.0
442.0
440.0
438.0
436.0
432.0
429.0
426.0
423.0
419.0
416.0
413.0
412.0
410.0
410.0
408.0
408.0
407.0
405.0
405.0
403.0
402.0
401.0
401.0
400.0
400.0
400.0
401.0
401.0
401.0
402.0
402.0
402.0
403.0
407.0
414.0
424.0
436.0
449.0
461.0
473.0
482.0
491.0
496.0
499.0
498.0
495.0
492.0
488.0
484.0
480.0
476.0
472.0
467.0
464.0
460.0
456.0
452.0
448.0
443.0
439.0
437.0
436.0
436.0
437.0
438.0
439.0
442.0
445.0
447.0
450.0
451.0
452.0
452.0
452.0
451.0
450.0
449.0
449.0
446.0
444.0
440.0
437.0
433.0
430.0
426.0
424.0
421.0
420.0
418.0
417.0
415.0
413.0
412.0
410.0
409.0
409.0
408.0
408.0
407.0
407.0
405.0
405.0
405.0
404.0
404.0
404.0
403.0
403.0
402.0
403.0
402.0
403.0
406.0
408.0
413.0
420.0
429.0
441.0
453.0
465.0
476.0
486.0
492.0
496.0
498.0
499.0
496.0
493.0
487.0
482.0
476.0
472.0
467.0
464.0
461.0
459.0
455.0
452.0
447.0
442.0
437.0
435.0
433.0
432.0
434.0
437.0
439.0
443.0
445.0
448.0
451.0
452.0
453.0
454.0
454.0
453.0
451.0
449.0
446.0
442.0
439.0
436.0
433.0
430.0
427.0
425.0
421.0
420.0
418.0
417.0
415.0
414.0
414.0
413.0
413.0
412.0
411.0
411.0
410.0
410.0
410.0
411.0
411.0
411.0
411.0
413.0
413.0
412.0
411.0
411.0
410.0
408.0
408.0
409.0
409.0
409.0
411.0
413.0
418.0
425.0
435.0
447.0
458.0
469.0
479.0
487.0
493.0
496.0
498.0
497.0
495.0
492.0
486.0
481.0
477.0
472.0
468.0
465.0
462.0
458.0
454.0
449.0
445.0
440.0
437.0
435.0
435.0
435.0
437.0
440.0
442.0
446.0
448.0
451.0
453.0
453.0
454.0
454.0
454.0
453.0
451.0
450.0
448.0
445.0
443.0
441.0
439.0
436.0
433.0
430.0
428.0
425.0
423.0
421.0
419.0
417.0
416.0
415.0
414.0
413.0
413.0
413.0
412.0
412.0
412.0
412.0
412.0
412.0
411.0
410.0
410.0
410.0
410.0
409.0
409.0
409.0
408.0
409.0
409.0
409.0
409.0
410.0
413.0
418.0
426.0
436.0
446.0
457.0
465.0
473.0
479.0
484.0
486.0
488.0
486.0
482.0
477.0
472.0
466.0
460.0
454.0
450.0
445.0
440.0
436.0
433.0
429.0
