Resting
-1558045.0
-1558167.0
-1557873.0
-1557223.0
-1556139.0
-1556341.0
-1555877.0
-1555737.0
-1555273.0
-1554777.0
-1554421.0
-1554219.0
-1554669.0
-1553399.0
-1553321.0
-1552965.0
-1552949.0
-1552871.0
-1552469.0
-1552113.0
-1552407.0
-1552159.0
-1551897.0
-1552221.0
-1551633.0
-1551541.0
-1551479.0
-1551153.0
-1551169.0
-1551571.0
-1551029.0
-1550889.0
-1550765.0
-1550859.0
-1550441.0
-1550921.0
-1551463.0
-1551091.0
-1551121.0
-1550999.0
-1551323.0
-1551649.0
-1551323.0
-1551463.0
-1551323.0
-1551215.0
-1551663.0
-1551711.0
-1551819.0
-1551633.0
-1551911.0
-1551959.0
-1552825.0
-1552965.0
-1552129.0
-1552981.0
-1552965.0
-1553011.0
-1553677.0
-1553151.0
-1553693.0
-1553739.0
-1553305.0
-1553305.0
-1553119.0
-1553167.0
-1552825.0
-1552501.0
-1552407.0
-1552485.0
-1551741.0
-1551757.0
-1551029.0
-1551199.0
-1550735.0
-1550951.0
-1550285.0
-1550533.0
-1550533.0
-1550099.0
-1550347.0
-1549791.0
-1549605.0
-1550099.0
-1550223.0
-1550131.0
-1549325.0
-1549697.0
-1549729.0
-1549791.0
-1549543.0
-1549945.0
-1549775.0
-1550007.0
-1550069.0
-1549775.0
-1549651.0
-1550099.0
-1549899.0
-1550053.0
-1550131.0
-1550099.0
-1550425.0
-1550503.0
-1550209.0
-1550719.0
-1550905.0
-1550921.0
-1551261.0
-1551075.0
-1551091.0
-1552005.0
-1551989.0
-1552175.0
-1552485.0
-1551973.0
-1552253.0
-1552903.0
-1552933.0
-1552933.0
-1553167.0
-1553631.0
-1553817.0
-1554049.0
-1554079.0
-1554281.0
-1554497.0
-1554451.0
-1555149.0
-1554963.0
-1554653.0
-1554993.0
-1554607.0
-1555101.0
-1554281.0
-1554405.0
-1554311.0
-1553461.0
-1553661.0
-1553289.0
-1553413.0
-1553151.0
-1553305.0
-1552469.0
-1552129.0
-1552671.0
-1552685.0
-1552253.0
-1552377.0
-1552283.0
-1552113.0
-1552809.0
-1552221.0
-1551525.0
-1552175.0
-1551881.0
-1551973.0
-1552051.0
-1552933.0
-1552329.0
-1552717.0
-1552345.0
-1552655.0
-1552361.0
-1552485.0
-1552857.0
-1552981.0
-1552919.0
-1552871.0
-1553027.0
-1553661.0
-1554017.0
-1554141.0
-1554157.0
-1554281.0
-1554653.0
-1554931.0
-1554853.0
-1555411.0
-1555643.0
-1555861.0
-1556201.0
-1556867.0
-1557053.0
-1556913.0
-1557145.0
-1557735.0
-1557983.0
-1558447.0
-1558369.0
-1559267.0
-1559035.0
-1559609.0
-1559733.0
-1560227.0
-1560151.0
-1560631.0
-1561063.0
-1561157.0
-1560877.0
-1560413.0
-1561141.0
-1561111.0
-1560831.0
-1560213.0
-1560459.0
-1559903.0
-1559717.0
-1559469.0
-1559469.0
-1558881.0
-1559561.0
-1559081.0
-1558849.0
-1558819.0
-1558509.0
-1558013.0
-1558121.0
-1558261.0
-1558339.0
-1557843.0
-1557889.0
-1558137.0
-1557827.0
-1558245.0
-1558059.0
-1558167.0
-1558013.0
-1558385.0
-1558477.0
-1558229.0
-1558029.0
-1557935.0
-1557393.0
-1557827.0
-1557533.0
-1558229.0
-1558353.0
-1557657.0
-1558369.0
-1558029.0
-1557889.0
-1557687.0
-1558911.0
-1558107.0
-1557983.0
-1558477.0
-1558957.0
-1558833.0
-1558957.0
-1559113.0
-1558539.0
-1558555.0
-1559267.0
-1559561.0
-1559005.0
-1559035.0
-1559221.0
-1559205.0
-1559809.0
-1560027.0
-1559733.0
-1559793.0
-1560459.0
-1560197.0
-1560351.0
-1561033.0
-1560521.0
-1560847.0
-1560661.0
-1560723.0
-1560151.0
-1559903.0
-1559825.0
-1559515.0
-1559825.0
-1559019.0
-1558881.0
-1558833.0
-1558865.0
-1558401.0
-1557921.0
-1558029.0
-1557533.0
-1557641.0
-1557703.0
-1558107.0
-1557781.0
-1557687.0
-1558029.0
-1558075.0
-1558045.0
-1558447.0
-1558199.0
-1558463.0
-1558401.0
-1558787.0
-1558741.0
-1558415.0
-1558167.0
-1558895.0
-1558555.0
-1558895.0
-1559129.0
-1559175.0
-1559531.0
-1559499.0
-1559887.0
-1559965.0
-1560769.0
-1560227.0
-1560863.0
-1561173.0
-1561419.0
-1561683.0
-1562209.0
-1562443.0
-1562875.0
-1562937.0
-1563897.0
-1563665.0
-1563449.0
-1564021.0
-1564425.0
-1564951.0
-1565121.0
-1565757.0
-1566329.0
-1566003.0
-1566871.0
-1567475.0
-1567599.0
-1567459.0
-1568219.0
-1568761.0
-1569783.0
-1569333.0
-1569317.0
-1569845.0
-1568761.0
-1569117.0
-1569333.0
-1569845.0
-1569131.0
-1569565.0
-1569009.0
-1568869.0
-1568947.0
-1568637.0
-1568729.0
-1568249.0
-1568589.0
-1567723.0
-1567801.0
-1567443.0
-1567629.0
-1567321.0
-1567567.0
-1566793.0
-1567459.0
-1567367.0
-1567227.0
-1566561.0
-1567011.0
-1567025.0
-1566499.0
-1566531.0
-1567119.0
-1566731.0
-1566995.0
-1567367.0
-1567567.0
-1567537.0
-1568405.0
-1567753.0
-1568451.0
-1569147.0
-1569241.0
-1569937.0
-1570325.0
-1570449.0
-1570635.0
-1571053.0
-1570835.0
-1571377.0
-1571919.0
-1571749.0
-1572601.0
-1572803.0
-1573623.0
-1573529.0
-1573653.0
-1573701.0
-1574413.0
-1574675.0
-1574799.0
-1575141.0
-1575249.0
-1575667.0
-1575667.0
-1576055.0
-1576937.0
-1576487.0
-1576735.0
-1577029.0
-1577665.0
-1577587.0
-1577355.0
-1576999.0
-1577201.0
-1577123.0
-1577201.0
-1577107.0
-1575993.0
-1576225.0
-1576069.0
-1575791.0
-1575217.0
-1575373.0
-1575667.0
-1575389.0
-1574785.0
-1574939.0
-1574923.0
-1574923.0
-1574799.0
-1575233.0
-1574923.0
-1575047.0
-1575311.0
-1575217.0
-1575141.0
-1575389.0
-1575821.0
-1575217.0
-1575125.0
-1575945.0
-1575915.0
-1575683.0
-1576131.0
-1576349.0
-1575713.0
-1576441.0
-1576363.0
-1576287.0
-1576689.0
-1576859.0
-1576039.0
-1576549.0
-1576519.0
-1576487.0
-1576673.0
-1576705.0
-1576689.0
-1577091.0
-1577123.0
-1577077.0
-1577277.0
-1577711.0
-1577495.0
-1576875.0
-1577649.0
-1578113.0
-1578067.0
-1578113.0
-1578315.0
-1578779.0
-1578253.0
-1578563.0
-1578609.0
-1578455.0
-1578981.0
-1579429.0
-1579089.0
-1579259.0
-1579739.0
-1579553.0
-1579043.0
-1578981.0
-1578887.0
-1578113.0
-1577789.0
-1577557.0
-1577261.0
-1576983.0
-1576425.0
-1576193.0
-1575265.0
-1574909.0
-1574723.0
-1573855.0
-1572973.0
-1573221.0
-1572693.0
-1572601.0
-1571857.0
-1571827.0
-1571285.0
-1570635.0
-1570773.0
-1571129.0
-1570031.0
-1569875.0
-1570045.0
-1569705.0
-1569565.0
-1569427.0
-1569303.0
-1568761.0
-1569193.0
-1568637.0
-1568001.0
-1567909.0
-1567801.0
-1567383.0
-1567459.0
-1566313.0
-1566593.0
-1566871.0
-1565941.0
-1565509.0
-1565771.0
-1566345.0
-1565121.0
-1564951.0
-1565833.0
-1565353.0
-1565183.0
-1564935.0
-1564795.0
-1565323.0
-1564657.0
-1565013.0
-1564161.0
-1564409.0
-1564471.0
-1564549.0
-1564161.0
-1564099.0
-1563681.0
-1563821.0
-1563603.0
-1563201.0
-1562643.0
-1562829.0
-1562257.0
-1561683.0
-1561637.0
-1560987.0
-1560213.0
-1560151.0
-1559469.0
-1559639.0
-1558787.0
-1557781.0
-1557967.0
-1557641.0
-1556867.0
-1556899.0
-1557161.0
-1555753.0
-1555473.0
-1555861.0
-1554745.0
-1555319.0
-1555101.0
-1554235.0
-1554235.0
-1554251.0
-1553893.0
-1553801.0
-1553461.0
-1553941.0
-1553831.0
-1552919.0
-1552747.0
-1552485.0
-1552329.0
-1551897.0
-1551695.0
-1551493.0
-1552083.0
-1551835.0
-1551277.0
-1551169.0
-1551261.0
-1550673.0
-1550781.0
-1550937.0
-1550627.0
-1550533.0
-1550285.0
-1550347.0
-1550395.0
-1549681.0
-1550657.0
-1549775.0
-1549651.0
-1550069.0
-1549821.0
-1549667.0
-1549713.0
-1549403.0
-1549527.0
-1549187.0
-1549589.0
-1549619.0
-1549419.0
-1549187.0
-1549403.0
-1549325.0
-1549373.0
-1548427.0
-1549063.0
-1548179.0
-1547467.0
-1547855.0
-1546879.0
-1546879.0
-1547081.0
-1546243.0
-1546305.0
-1545423.0
-1544913.0
-1544943.0
-1544913.0
-1544107.0
-1543891.0
-1544587.0
-1543859.0
-1543225.0
-1543441.0
-1543457.0
-1542559.0
-1543039.0
-1542821.0
-1542635.0
-1542125.0
-1542961.0
-1542249.0
-1541783.0
-1542543.0
-1542093.0
-1541567.0
-1542141.0
-1541413.0
-1541583.0
-1541413.0
-1541041.0
-1540715.0
-1541025.0
-1541057.0
-1540281.0
-1540839.0
-1540157.0
-1540281.0
-1540297.0
-1540049.0
-1540267.0
-1540639.0
-1539833.0
-1540019.0
-1540297.0
-1539987.0
-1540529.0
-1539601.0
-1539863.0
-1539895.0
-1540297.0
-1540359.0
-1539879.0
-1540359.0
-1539925.0
-1539663.0
-1539321.0
-1539631.0
-1539725.0
-1539801.0
-1539213.0
-1538827.0
-1538021.0
-1538145.0
-1537509.0
-1537851.0
-1536705.0
-1536549.0
-1535791.0
-1535729.0
-1535465.0
-1535977.0
-1534645.0
-1534629.0
-1534011.0
-1534707.0
-1534351.0
-1533577.0
-1533483.0
-1533111.0
-1533407.0
-1533297.0
-1533173.0
-1533359.0
-1533221.0
-1532895.0
-1533003.0
-1532601.0
-1532911.0
-1532447.0
-1532229.0
-1532337.0
-1531935.0
-1531965.0
-1531269.0
-1531749.0
-1531609.0
-1531455.0
-1531827.0
-1531239.0
-1531377.0
-1531067.0
-1531083.0
-1531393.0
-1531315.0
-1531363.0
-1531115.0
-1531161.0
-1530929.0
-1530929.0
-1530943.0
-1530913.0
-1530851.0
-1531067.0
-1531239.0
-1531347.0
-1531145.0
-1530759.0
-1530635.0
-1530541.0
-1530991.0
-1530773.0
-1531517.0
-1530929.0
-1531115.0
-1530975.0
-1531129.0
-1530603.0
-1530635.0
-1530107.0
-1529503.0
-1529101.0
-1528729.0
-1529071.0
-1527955.0
-1528823.0
-1527553.0
-1527073.0
-1526995.0
-1526313.0
-1526483.0
-1526391.0
-1525601.0
-1524951.0
-1524967.0
-1525849.0
-1524811.0
-1525029.0
-1524177.0
-1524595.0
-1524579.0
-1524765.0
-1524765.0
-1524207.0
-1524177.0
-1524471.0
-1523589.0
-1523651.0
-1524425.0
-1523355.0
-1523387.0
-1523279.0
-1523093.0
-1523247.0
-1522799.0
-1522953.0
-1522443.0
-1523061.0
-1522675.0
-1522799.0
-1523465.0
-1523047.0
-1522659.0
-1523031.0
-1522597.0
-1522627.0
-1522799.0
-1522923.0
-1523077.0
-1521559.0
-1522535.0
-1522861.0
-1522705.0
-1523015.0
-1522861.0
-1522721.0
-1523109.0
-1522937.0
-1522627.0
-1523341.0
-1523061.0
-1522751.0
-1522705.0
-1522845.0
-1522535.0
-1522985.0
-1522287.0
-1522411.0
-1521839.0
-1521421.0
-1521513.0
-1520707.0
-1520475.0
-1520103.0
-1520135.0
-1519005.0
-1519609.0
-1519129.0
-1519097.0
-1518849.0
-1518415.0
-1518369.0
-1518525.0
-1518137.0
-1517859.0
-1517363.0
-1517641.0
-1516605.0
-1516867.0
-1516713.0
-1516837.0
-1516387.0
-1516665.0
-1516063.0
-1516263.0
-1516155.0
-1515907.0
-1515691.0
-1515691.0
-1515319.0
-1515149.0
-1514901.0
-1514917.0
-1514497.0
-1514839.0
-1514977.0
-1515071.0
-1515101.0
-1515117.0
-1514869.0
-1514761.0
-1515039.0
-1515163.0
-1515365.0
-1515117.0
-1515303.0
-1515365.0
-1515829.0
-1515211.0
-1515597.0
-1515767.0
-1515891.0
-1515675.0
-1516015.0
-1515815.0
-1516371.0
-1516279.0
-1516403.0
-1516015.0
-1516341.0
-1516557.0
-1516665.0
-1516171.0
-1516155.0
-1516185.0
-1515397.0
-1515381.0
-1514901.0
-1514235.0
-1514111.0
-1513553.0
-1513367.0
-1513445.0
-1512857.0
-1512655.0
-1512593.0
-1512361.0
-1512175.0
-1511741.0
-1511463.0
-1510827.0
-1510657.0
-1510533.0
-1510285.0
-1510255.0
-1510503.0
-1509605.0
-1509667.0
-1510409.0
-1510239.0
-1509759.0
-1510209.0
-1510115.0
-1509867.0
-1509929.0
-1510085.0
-1510147.0
-1510457.0
-1510099.0
-1510239.0
-1510441.0
-1510673.0
-1510751.0
-1511587.0
-1511029.0
-1511107.0
-1511277.0
-1511741.0
-1511725.0
-1511633.0
-1512097.0
-1512733.0
-1511835.0
-1512547.0
-1512857.0
-1513337.0
-1513243.0
-1514173.0
-1514421.0
-1514375.0
-1514513.0
-1514669.0
-1515381.0
-1516279.0
-1515783.0
-1516419.0
-1516419.0
-1516759.0
-1516697.0
-1516651.0
-1516433.0
-1516867.0
-1516325.0
-1516727.0
-1516015.0
-1516155.0
-1516001.0
-1515861.0
-1516557.0
-1516263.0
-1516481.0
-1516387.0
-1516093.0
-1516063.0
-1516387.0
-1515969.0
-1516403.0
-1516295.0
-1516527.0
-1516789.0
-1516309.0
-1516665.0
-1517223.0
-1516557.0
-1516961.0
-1517269.0
-1517859.0
-1517147.0
-1517255.0
-1517239.0
-1517379.0
-1517517.0
-1517719.0
-1518013.0
-1518431.0
-1518323.0
-1518865.0
-1518943.0
-1519361.0
-1519515.0
-1519485.0
-1519283.0
-1519809.0
-1519733.0
-1520413.0
-1521235.0
-1520413.0
-1520971.0
-1521373.0
-1521823.0
-1521699.0
-1522163.0
-1522411.0
-1523309.0
-1522613.0
-1523169.0
-1523465.0
-1522783.0
-1523665.0
-1523541.0
-1524207.0
-1523773.0
-1524177.0
-1523681.0
-1524673.0
-1524719.0
-1524393.0
-1524811.0
-1525725.0
-1525399.0
-1526113.0
-1526499.0
-1526701.0
-1526391.0
-1527397.0
-1527165.0
-1527211.0
-1527103.0
-1527769.0
-1528219.0
-1528451.0
-1528993.0
-1529751.0
-1529441.0
-1530573.0
-1530339.0
-1530959.0
-1531177.0
-1531719.0
-1531795.0
-1532817.0
-1532833.0
-1533313.0
-1533777.0
-1534335.0
-1534629.0
-1535373.0
-1535497.0
-1535807.0
-1536379.0
-1537743.0
-1537417.0
-1537509.0
-1538223.0
-1538671.0
-1539011.0
-1539601.0
-1540515.0
-1540577.0
-1541025.0
-1541195.0
-1542063.0
-1542311.0
-1543007.0
-1543829.0
-1544309.0
-1544803.0
-1545625.0
-1546507.0
-1547033.0
-1547653.0
-1548443.0
-1549311.0
-1549791.0
-1550363.0
-1550905.0
-1550951.0
-1551695.0
-1552515.0
-1551897.0
-1552515.0
-1553289.0
-1552887.0
-1553383.0
-1553043.0
-1553553.0
-1553305.0
-1553119.0
-1553321.0
-1553755.0
-1553259.0
-1553429.0
-1553089.0
-1552919.0
-1553275.0
-1553461.0
-1553073.0
-1553243.0
-1553445.0
-1553413.0
-1553647.0
-1553817.0
-1553847.0
-1553769.0
-1553445.0
-1554095.0
-1553693.0
-1554049.0
-1553879.0
-1553275.0
-1553227.0
-1553413.0
-1553585.0
-1553801.0
-1553723.0
-1553723.0
-1553197.0
-1554127.0
-1553847.0
-1553847.0
-1553337.0
-1553709.0
-1554251.0
-1554219.0
-1554281.0
-1554699.0
-1554607.0
-1555039.0
-1554993.0
-1555659.0
-1555613.0
-1556263.0
-1556403.0
-1556759.0
-1557409.0
-1556603.0
-1557021.0
-1557363.0
-1557177.0
-1557687.0
-1556945.0
-1556945.0
-1556899.0
-1556789.0
-1556247.0
-1555659.0
-1556093.0
-1555597.0
-1555163.0
-1555473.0
-1555241.0
-1555675.0
-1554669.0
-1554915.0
-1554405.0
-1554251.0
-1554545.0
-1554251.0
-1554359.0
-1554203.0
-1554003.0
-1554203.0
-1553879.0
-1553585.0
-1553507.0
-1554189.0
-1554311.0
-1554297.0
-1554251.0
-1554251.0
-1554359.0
-1553863.0
-1553631.0
-1553599.0
-1554017.0
-1554017.0
-1553739.0
-1554141.0
-1553709.0
-1554265.0
-1554033.0
-1554823.0
-1554559.0
-1554343.0
-1554839.0
-1554405.0
-1554621.0
-1554901.0
-1555133.0
-1554993.0
-1554915.0
-1554807.0
-1555273.0
-1556031.0
-1555675.0
-1555969.0
-1555737.0
-1556309.0
-1556093.0
-1556123.0
-1555985.0
-1555907.0
-1555643.0
-1555257.0
-1554993.0
-1554389.0
-1554607.0
-1554017.0
-1554435.0
-1553723.0
-1553429.0
-1553523.0
-1552949.0
-1552919.0
-1551897.0
-1552871.0
-1552809.0
-1552097.0
-1551741.0
-1551385.0
-1551617.0
-1551711.0
-1552067.0
-1551803.0
-1551649.0
-1551199.0
-1551137.0
-1551277.0
-1551245.0
-1551277.0
-1551293.0
-1550875.0
-1550813.0
-1550967.0
-1550517.0
-1550859.0
-1550627.0
-1550193.0
-1551013.0
-1550967.0
-1550239.0
-1550317.0
-1550595.0
-1550441.0
-1550657.0
-1550565.0
-1550641.0
-1550565.0
-1550765.0
-1550457.0
-1550889.0
-1551169.0
-1550967.0
-1550611.0
-1551385.0
-1551075.0
-1551803.0
-1551245.0
-1551293.0
-1551541.0
-1551339.0
-1551169.0
-1550937.0
-1550735.0
-1550549.0
-1549403.0
-1549821.0
-1549419.0
-1548923.0
-1548815.0
-1548691.0
-1548459.0
-1547699.0
-1547823.0
-1547545.0
-1547049.0
-1546909.0
-1547143.0
-1546661.0
-1546367.0
-1546229.0
-1546367.0
-1545887.0
-1546027.0
-1545873.0
-1545965.0
-1546059.0
-1546059.0
-1546197.0
-1545145.0
-1545067.0
-1545625.0
-1545221.0
-1545113.0
-1545717.0
-1544617.0
-1545159.0
-1544695.0
-1544803.0
-1544727.0
-1545175.0
-1545455.0
-1544835.0
-1545207.0
-1545345.0
-1544897.0
-1545407.0
-1545269.0
-1545423.0
-1545423.0
-1545517.0
-1545935.0
-1546259.0
-1546367.0
-1546105.0
-1546011.0
-1546043.0
-1545749.0
-1546291.0
-1546197.0
-1545949.0
-1545639.0
-1545269.0
-1544913.0
-1544819.0
-1545005.0
-1544045.0
-1543409.0
-1543595.0
-1543503.0
-1542573.0
-1542929.0
-1542435.0
-1541845.0
-1540947.0
-1541335.0
-1541241.0
-1540761.0
-1540529.0
-1540111.0
-1539849.0
-1540313.0
-1539957.0
-1539445.0
-1539647.0
-1539291.0
-1539121.0
-1538641.0
-1539183.0
-1538641.0
-1538393.0
-1538779.0
-1538051.0
-1538377.0
-1538191.0
-1537743.0
-1537867.0
-1537649.0
-1537433.0
-1537587.0
-1537077.0
-1537107.0
-1536813.0
-1536085.0
-1536039.0
-1535945.0
-1536007.0
-1535265.0
-1535095.0
-1535079.0
-1535233.0
-1535001.0
-1535589.0
-1534909.0
-1535079.0
-1535217.0
-1535063.0
-1536117.0
-1535729.0
-1535883.0
-1535419.0
-1535435.0
-1534723.0
-1535171.0
-1534567.0
-1534305.0
-1533963.0
-1533731.0
-1533545.0
-1533437.0
-1533313.0
-1533329.0
-1532555.0
-1532507.0
-1532631.0
-1531857.0
-1532385.0
-1532013.0
-1532013.0
-1531795.0
-1531671.0
-1531765.0
-1531657.0
-1531765.0
-1531517.0
-1532523.0
-1531579.0
-1532679.0
-1532353.0
-1533221.0
-1533111.0
-1533035.0
-1533081.0
-1532585.0
-1533901.0
-1533297.0
-1533639.0
-1533483.0
-1534273.0
-1534289.0
-1534723.0
-1534877.0
-1535465.0
-1535745.0
-1536193.0
-1536441.0
-1536565.0
-1536735.0
-1537695.0
-1537633.0
-1538113.0
-1538703.0
-1539245.0
-1539739.0
-1539817.0
-1540095.0
-1541289.0
-1541599.0
-1542605.0
-1542573.0
-1543533.0
-1543487.0
-1544433.0
-1545067.0
-1545253.0
-1545531.0
-1545795.0
-1545717.0
-1546151.0
-1546089.0
-1546119.0
-1546259.0
-1546677.0
-1546445.0
-1546089.0
-1546755.0
-1546709.0
-1546785.0
-1546693.0
-1546491.0
-1546971.0
-1547545.0
-1547189.0
-1547281.0
-1547607.0
-1548117.0
-1548799.0
-1548335.0
-1548845.0
-1548953.0
-1549775.0
-1550271.0
-1551075.0
-1550487.0
-1550905.0
-1551199.0
-1551277.0
-1552221.0
-1552531.0
-1552577.0
-1553089.0
-1553367.0
-1553089.0
-1554141.0
-1554327.0
-1554823.0
-1554885.0
-1555117.0
-1555443.0
-1556263.0
-1556665.0
-1556619.0
-1557053.0
-1557441.0
-1557921.0
-1558091.0
-1558957.0
-1559143.0
-1559375.0
-1559485.0
-1559979.0
-1560817.0
-1561049.0
-1561497.0
-1561729.0
-1562365.0
-1562195.0
-1562705.0
-1563093.0
-1562721.0
-1563867.0
-1563835.0
-1564099.0
-1564099.0
-1565075.0
-1565353.0
-1565493.0
-1565647.0
-1565415.0
-1565137.0
-1565323.0
-1565369.0
-1565167.0
-1564487.0
-1564857.0
-1564595.0
-1564719.0
-1564781.0
-1564625.0
-1564749.0
-1563897.0
-1564625.0
-1564377.0
-1563835.0
-1563789.0
-1563527.0
-1563665.0
-1563355.0
-1563681.0
-1563897.0
-1563403.0
-1563355.0
-1563789.0
-1562705.0
-1563759.0
-1563015.0
-1563727.0
-1563279.0
-1563231.0
-1562923.0
-1562473.0
-1563527.0
-1562751.0
-1563247.0
-1563309.0
-1563061.0
-1563417.0
-1563045.0
-1563015.0
-1563743.0
-1563279.0
-1563527.0
-1563821.0
-1563727.0
-1563231.0
-1563789.0
-1564363.0
-1564425.0
-1563759.0
-1564177.0
-1564611.0
-1565617.0
-1565215.0
-1565493.0
-1565725.0
-1566189.0
-1566097.0
-1566205.0
-1566731.0
-1567165.0
-1566763.0
-1567661.0
-1567815.0
-1568281.0
-1567939.0
-1567769.0
-1568823.0
-1568249.0
-1568621.0
-1568527.0
-1568295.0
-1568109.0
-1567815.0
-1568513.0
-1567645.0
-1567785.0
-1567863.0
-1567971.0
-1567691.0
-1567491.0
-1567335.0
-1568017.0
-1567753.0
-1567645.0
-1567567.0
-1567955.0
-1568667.0
-1567629.0
-1568281.0
-1568047.0
-1568527.0
-1568961.0
-1568915.0
-1568713.0
-1569611.0
-1569891.0
-1569659.0
-1569643.0
-1569891.0
-1569411.0
-1570077.0
-1570263.0
-1570355.0
-1569983.0
-1570665.0
-1571237.0
-1570913.0
-1571331.0
-1571471.0
-1572027.0
-1572013.0
-1572539.0
-1572601.0
-1573143.0
-1572973.0
-1573329.0
-1573577.0
-1574645.0
-1574661.0
-1574799.0
-1575759.0
-1575605.0
-1575807.0
-1576287.0
-1576751.0
-1577091.0
-1577215.0
-1577495.0
-1578315.0
-1578703.0
-1578223.0
-1578857.0
-1578501.0
-1578455.0
-1578517.0
-1578873.0
-1578423.0
-1578315.0
-1579043.0
-1578625.0
-1578733.0
-1578593.0
-1578237.0
-1578579.0
-1578407.0
-1578485.0
-1578997.0
-1578579.0
-1579059.0
-1578765.0
-1578795.0
-1579307.0
-1579059.0
-1578687.0
-1578903.0
-1579553.0
-1579553.0
-1579755.0
-1578997.0
-1579275.0
-1579569.0
-1580111.0
-1579863.0
-1580251.0
-1580313.0
-1579631.0
-1580979.0
-1580575.0
-1581149.0
-1581289.0
-1581521.0
-1581133.0
-1581567.0
-1581907.0
-1582279.0
-1582775.0
-1583363.0
-1582837.0
-1583395.0
-1584045.0
-1584417.0
-1584587.0
-1584385.0
-1585145.0
-1584803.0
-1585283.0
-1585005.0
-1586415.0
-1585965.0
-1587141.0
-1587327.0
-1587049.0
-1587359.0
-1587823.0
-1588225.0
-1588861.0
-1588767.0
-1588195.0
-1588705.0
-1588799.0
-1588891.0
-1589589.0
-1589171.0
-1588721.0
-1589217.0
-1588907.0
-1588459.0
-1588923.0
-1588953.0
-1588659.0
-1588117.0
-1588691.0
-1588877.0
-1588923.0
-1588629.0
-1588783.0
-1588521.0
-1588629.0
-1589093.0
-1589047.0
-1588969.0
-1588861.0
-1588829.0
-1589837.0
-1589449.0
-1589527.0
-1589077.0
-1589667.0
-1589837.0
-1589913.0
-1590147.0
-1590285.0
-1590209.0
-1590983.0
-1590533.0
-1590085.0
-1590921.0
-1591169.0
-1591417.0
-1591555.0
-1591835.0
-1591803.0
-1592299.0
-1592361.0
-1593243.0
-1593337.0
-1593553.0
-1593941.0
-1594033.0
-1594079.0
-1594761.0
-1595349.0
-1595303.0
-1595443.0
-1596325.0
-1596805.0
-1596541.0
-1597285.0
-1597533.0
-1597239.0
-1598277.0
-1598555.0
-1598633.0
-1598601.0
-1598895.0
-1599437.0
-1599005.0
-1599469.0
-1599251.0
-1599345.0
-1599127.0
-1598771.0
-1598695.0
-1599361.0
-1599221.0
-1599067.0
-1598787.0
-1598849.0
-1599189.0
-1598741.0
-1598911.0
-1598585.0
-1598849.0
-1599251.0
-1598741.0
-1598291.0
-1598771.0
-1598973.0
-1598973.0
-1599407.0
-1598927.0
-1599175.0
-1598849.0
-1599313.0
-1599081.0
-1599175.0
-1599375.0
-1599361.0
-1599547.0
-1599345.0
-1599841.0
-1599515.0
-1599051.0
-1599127.0
-1599329.0
-1599267.0
-1599097.0
-1599763.0
-1599779.0
-1599685.0
-1599809.0
-1600367.0
-1600011.0
-1600413.0
-1599979.0
-1600677.0
-1600321.0
-1601049.0
-1601219.0
-1600987.0
-1601249.0
-1601715.0
-1601699.0
-1602303.0
-1602379.0
-1602597.0
-1602675.0
-1602597.0
-1602565.0
-1603015.0
-1602861.0
-1602891.0
-1603031.0
-1602969.0
-1601915.0
-1601885.0
-1601591.0
-1601559.0
-1601079.0
-1601063.0
-1600041.0
-1600181.0
-1600227.0
-1599623.0
-1599593.0
-1599221.0
-1599051.0
-1598401.0
-1598787.0
-1598277.0
-1597611.0
-1598137.0
-1597843.0
-1597797.0
-1597439.0
-1597641.0
-1597549.0
-1597611.0
-1597301.0
-1597007.0
-1597053.0
-1597843.0
-1597981.0
-1597611.0
-1597331.0
-1597317.0
-1597517.0
-1597193.0
-1597425.0
-1597797.0
-1597501.0
-1597625.0
-1597749.0
-1597921.0
-1597549.0
-1598013.0
-1598291.0
-1598261.0
-1598973.0
-1598509.0
-1598881.0
-1598803.0
-1599593.0
-1599299.0
-1599407.0
-1599965.0
-1600583.0
-1600027.0
-1600739.0
-1600693.0
-1600925.0
-1601529.0
-1601791.0
-1602395.0
-1602427.0
-1602675.0
-1603031.0
-1603015.0
-1602659.0
-1602287.0
-1602675.0
-1602257.0
-1602427.0
-1601931.0
-1601543.0
-1601621.0
-1601961.0
-1601001.0
-1601373.0
-1600909.0
-1601141.0
-1600429.0
-1601235.0
-1600631.0
-1600521.0
-1600707.0
-1600893.0
-1600491.0
-1600537.0
-1600197.0
-1600707.0
-1600569.0
-1600631.0
-1601219.0
-1601451.0
-1601079.0
-1601219.0
-1601947.0
-1601357.0
-1601837.0
-1601745.0
-1602427.0
-1602535.0
-1602829.0
-1602953.0
-1603463.0
-1603727.0
-1603821.0
-1603913.0
-1604269.0
-1604733.0
-1605539.0
-1605725.0
-1605693.0
-1605865.0
-1606189.0
-1606871.0
-1607335.0
-1607305.0
-1607599.0
-1608017.0
-1608451.0
-1608513.0
-1608837.0
-1609317.0
-1609611.0
-1610107.0
-1610587.0
-1610975.0
-1611501.0
-1611423.0
-1610867.0
-1612245.0
-1611841.0
-1611501.0
-1612167.0
-1611331.0
-1611687.0
-1611377.0
-1611361.0
-1610773.0
-1610991.0
-1611455.0
-1610789.0
-1611099.0
-1610929.0
-1610061.0
-1610139.0
-1609983.0
-1610649.0
-1609875.0
-1610077.0
-1610263.0
-1610015.0
-1610371.0
-1610557.0
-1610153.0
-1610711.0
-1610309.0
-1610339.0
-1609921.0
-1610819.0
-1610897.0
-1610511.0
-1610371.0
-1610681.0
-1611237.0
-1611377.0
-1611207.0
-1610897.0
-1611285.0
-1611347.0
-1611579.0
-1611347.0
-1611579.0
-1611951.0
-1611533.0
-1612353.0
-1612013.0
-1612987.0
-1613097.0
-1613421.0
-1613221.0
-1614041.0
-1613839.0
-1614243.0
-1614273.0
-1614551.0
-1614243.0
-1614661.0
-1615249.0
-1615079.0
-1615497.0
-1615511.0
-1616627.0
-1616085.0
-1617077.0
-1616457.0
-1616689.0
-1617247.0
-1616627.0
-1616457.0
-1616225.0
-1616287.0
-1616363.0
-1615265.0
-1615511.0
-1615187.0
-1614877.0
-1615141.0
-1614707.0
-1614785.0
-1614397.0
-1613855.0
-1613747.0
-1613777.0
-1613777.0
-1613871.0
-1613359.0
-1613839.0
-1613623.0
-1613885.0
-1613359.0
-1613995.0
-1613885.0
-1614119.0
-1613995.0
-1613793.0
-1613607.0
-1614057.0
-1613343.0
-1613917.0
-1613561.0
-1613467.0
-1614413.0
-1614367.0
-1614691.0
-1614397.0
-1614645.0
-1613947.0
-1614071.0
-1614459.0
-1615001.0
-1614723.0
-1614939.0
-1614861.0
-1615605.0
-1615249.0
-1615899.0
-1616177.0
-1616163.0
-1615775.0
-1616595.0
-1617137.0
-1617015.0
-1617897.0
-1617741.0
-1617757.0
-1618345.0
-1618207.0
-1618671.0
-1618811.0
-1619073.0
-1619415.0
-1619167.0
-1619135.0
-1619383.0
-1618887.0
-1618579.0
-1618377.0
-1617541.0
-1617975.0
-1617153.0
-1618113.0
-1616891.0
-1616797.0
-1616115.0
-1615745.0
-1616735.0
-1615093.0
-1616023.0
-1615759.0
-1615311.0
-1615527.0
-1614567.0
-1614893.0
-1614195.0
-1614583.0
-1614319.0
-1614133.0
-1614413.0
-1613917.0
-1613885.0
-1613979.0
-1613917.0
-1613577.0
-1614041.0
-1612801.0
-1613235.0
-1613529.0
-1613267.0
-1612911.0
-1612895.0
-1613421.0
-1612895.0
-1612987.0
-1613623.0
-1612833.0
-1612941.0
-1613405.0
-1613561.0
-1613251.0
-1613731.0
-1613963.0
-1613701.0
-1613561.0
-1613995.0
-1614505.0
-1614257.0
-1614427.0
-1614475.0
-1614815.0
-1615249.0
-1614785.0
-1615217.0
-1615403.0
-1615233.0
-1615451.0
-1614753.0
-1614691.0
-1614831.0
-1614847.0
-1614025.0
-1613437.0
-1613159.0
-1613221.0
-1613391.0
-1612647.0
-1612445.0
-1611965.0
-1611671.0
-1611625.0
-1611733.0
-1611285.0
-1610711.0
-1610525.0
-1611145.0
-1610169.0
-1610743.0
-1610495.0
-1611145.0
-1610711.0
-1610633.0
-1609953.0
-1610293.0
-1610263.0
-1609953.0
-1610215.0
-1609859.0
-1610325.0
-1610077.0
-1609735.0
-1610091.0
-1609365.0
-1609845.0
-1609643.0
-1609581.0
-1609673.0
-1609721.0
-1609875.0
-1609611.0
-1609721.0
-1609643.0
-1609999.0
-1610169.0
-1610045.0
-1610897.0
-1610231.0
-1610975.0
-1610897.0
-1611253.0
-1611253.0
-1611409.0
-1612121.0
-1611609.0
-1611857.0
-1612245.0
-1611595.0
-1611827.0
-1611919.0
-1611393.0
-1610463.0
-1611099.0
-1610263.0
-1610325.0
-1610371.0
-1609999.0
-1609659.0
-1609317.0
-1609163.0
-1609255.0
-1608885.0
-1609055.0
-1608559.0
-1607707.0
-1607769.0
-1608527.0
-1608249.0
-1608389.0
-1607831.0
-1608125.0
-1608095.0
-1607567.0
-1608033.0
-1608527.0
-1607753.0
-1608219.0
-1608513.0
-1608621.0
-1608683.0
-1608465.0
-1608033.0
-1607971.0
-1608017.0
-1608219.0
-1608419.0
-1608389.0
-1609117.0
-1608993.0
-1608931.0
-1608899.0
-1609427.0
-1610029.0
-1609937.0
-1608945.0
-1609473.0
-1610077.0
-1610665.0
-1610541.0
-1610665.0
-1610773.0
-1611703.0
-1611655.0
-1611965.0
-1611377.0
-1612105.0
-1612353.0
-1613143.0
-1612879.0
-1612197.0
-1612105.0
-1611889.0
-1612245.0
-1611779.0
-1611563.0
-1610851.0
-1610449.0
-1610325.0
-1609395.0
-1610231.0
-1609859.0
-1608885.0
-1609209.0
-1608435.0
-1609023.0
-1608837.0
-1608419.0
-1608109.0
-1607877.0
-1607955.0
-1608187.0
-1607707.0
-1607677.0
-1608203.0
-1607691.0
-1608047.0
-1607583.0
-1607645.0
-1607831.0
-1607259.0
-1607381.0
-1607367.0
-1607273.0
-1607149.0
-1606809.0
-1607135.0
-1606979.0
-1606855.0
-1607243.0
-1606995.0
-1607165.0
-1606531.0
-1607243.0
-1606809.0
-1607087.0
-1607397.0
-1607273.0
-1607739.0
-1607505.0
-1607939.0
-1608343.0
-1608265.0
-1608327.0
-1607909.0
-1608063.0
-1608311.0
-1608807.0
-1609007.0
-1609055.0
-1608343.0
-1607599.0
-1607985.0
-1607645.0
-1607553.0
-1606499.0
-1606531.0
-1606391.0
-1605973.0
-1606003.0
-1605631.0
-1605693.0
-1604811.0
-1605151.0
-1604889.0
-1604687.0
-1605089.0
-1604269.0
-1604843.0
-1604409.0
-1604609.0
-1604811.0
-1604905.0
-1605229.0
-1604733.0
-1604487.0
-1605307.0
-1604533.0
-1604919.0
-1604873.0
-1604981.0
-1604703.0
-1604905.0
-1605585.0
-1604935.0
-1604997.0
-1605183.0
-1605229.0
-1605585.0
-1605725.0
-1605679.0
-1605989.0
-1606251.0
-1606143.0
-1606437.0
-1607103.0
-1607397.0
-1606917.0
-1607413.0
-1607955.0
-1608357.0
-1607861.0
-1608575.0
-1608853.0
-1609193.0
-1609673.0
-1609411.0
-1610029.0
-1609659.0
-1610231.0
-1609627.0
-1609549.0
-1609891.0
-1609721.0
-1608853.0
-1609101.0
-1608373.0
-1608481.0
-1607923.0
-1607815.0
-1607537.0
-1607893.0
-1607429.0
-1607041.0
-1607057.0
-1607211.0
-1607259.0
-1606995.0
-1607305.0
-1606685.0
-1607335.0
-1606777.0
-1606297.0
-1606995.0
-1607041.0
-1606933.0
-1607367.0
-1607259.0
-1606887.0
-1607505.0
-1607351.0
-1606949.0
-1606747.0
-1607135.0
-1607521.0
-1607537.0
-1607909.0
-1607815.0
-1607893.0
-1608373.0
-1607955.0
-1608281.0
-1608125.0
-1608837.0
-1608899.0
-1608713.0
-1609147.0
-1609163.0
-1609085.0
-1609659.0
-1610309.0
-1610139.0
-1610015.0
-1610603.0
-1610757.0
-1611005.0
-1611285.0
-1611579.0
-1611733.0
-1611563.0
-1611409.0
-1610805.0
-1610975.0
-1611099.0
-1610557.0
-1611145.0
-1610123.0
-1610091.0
-1609379.0
-1608869.0
-1609983.0
-1609101.0
-1608885.0
-1608961.0
-1608513.0
-1608915.0
-1608885.0
-1608497.0
-1608281.0
-1607801.0
-1608465.0
-1608171.0
-1608281.0
-1608203.0
-1607831.0
-1607971.0
-1607505.0
-1608157.0
-1607909.0
-1607939.0
-1607877.0
-1608311.0
-1607939.0
-1608109.0
-1607939.0
-1607723.0
-1608357.0
-1608281.0
-1608713.0
-1608729.0
-1608621.0
-1608543.0
-1608605.0
-1608451.0
-1608667.0
-1609007.0
-1609441.0
-1609473.0
-1609969.0
-1609721.0
-1609503.0
-1609845.0
-1610247.0
-1610449.0
-1610805.0
-1610433.0
-1611053.0
-1610897.0
-1611237.0
-1611857.0
-1612075.0
-1612259.0
-1611129.0
-1611485.0
-1611501.0
-1611099.0
-1611129.0
-1610913.0
-1610511.0
-1609813.0
-1609473.0
-1609783.0
-1609705.0
-1609039.0
-1608729.0
-1608993.0
-1608945.0
-1608699.0
-1608667.0
-1608311.0
-1608311.0
-1607877.0
-1607305.0
-1608095.0
-1607939.0
-1608001.0
-1607397.0
-1607815.0
-1607677.0
-1607553.0
-1607459.0
-1607491.0
-1607801.0
-1607985.0
-1607661.0
-1607553.0
-1607707.0
-1607661.0
-1607537.0
-1607073.0
-1607677.0
-1607939.0
-1607505.0
-1607645.0
-1608203.0
-1608403.0
-1608047.0
-1607955.0
-1608109.0
-1608823.0
-1608899.0
-1608047.0
-1608823.0
-1608869.0
-1609317.0
-1609705.0
-1609969.0
-1609549.0
-1609953.0
-1610091.0
-1610169.0
-1610557.0
-1610371.0
-1610541.0
-1610943.0
-1611129.0
-1610557.0
-1610139.0
-1609441.0
-1609721.0
-1609487.0
-1609117.0
-1608869.0
-1608311.0
-1608079.0
-1608435.0
-1608141.0
-1607661.0
-1606793.0
-1607397.0
-1606717.0
-1606731.0
-1607087.0
-1606949.0
-1606887.0
-1606871.0
-1607273.0
-1606329.0
-1606763.0
-1606545.0
-1606777.0
-1606901.0
-1606421.0
-1607073.0
-1606097.0
-1606329.0
-1606175.0
-1605911.0
-1606407.0
-1606545.0
-1606127.0
-1605927.0
-1605647.0
-1606035.0
-1606763.0
-1606469.0
-1606159.0
-1606267.0
-1606763.0
-1606469.0
-1606205.0
-1606793.0
-1607025.0
-1606917.0
-1607025.0
-1607087.0
-1607165.0
-1607645.0
-1607629.0
-1608171.0
-1607661.0
-1607739.0
-1608171.0
-1608869.0
-1608761.0
-1609179.0
-1608823.0
-1608823.0
-1609535.0
-1609225.0
-1608993.0
-1608373.0
-1608791.0
-1608343.0
-1607567.0
-1607739.0
-1607429.0
-1607135.0
-1607057.0
-1606097.0
-1605631.0
-1605461.0
-1605493.0
-1605493.0
-1605353.0
-1605013.0
-1604301.0
-1604843.0
-1604703.0
-1604363.0
-1604579.0
-1604067.0
-1604191.0
-1603743.0
-1604145.0
-1604177.0
-1603727.0
-1604129.0
-1603805.0
-1603541.0
-1603587.0
-1603185.0
-1602845.0
-1603217.0
-1602721.0
-1602627.0
-1602799.0
-1602473.0
-1602845.0
-1602379.0
-1602813.0
-1601931.0
-1602303.0
-1602441.0
-1602365.0
-1602813.0
-1602379.0
-1602689.0
-1602287.0
-1602861.0
-1602953.0
-1602737.0
-1603045.0
-1602845.0
-1603045.0
-1602921.0
-1602891.0
-1602937.0
-1602721.0
-1603217.0
-1603123.0
-1603403.0
-1602737.0
-1602365.0
-1602519.0
-1601791.0
-1601311.0
-1600769.0
-1601435.0
-1600987.0
-1600553.0
-1600289.0
-1599423.0
-1599685.0
-1599097.0
-1598927.0
-1599283.0
-1599005.0
-1598493.0
-1599237.0
-1598323.0
-1598339.0
-1597843.0
-1598261.0
-1598353.0
-1598183.0
-1597873.0
-1598277.0
-1597951.0
-1598091.0
-1598307.0
-1597735.0
-1598291.0
-1598091.0
-1597859.0
-1597735.0
-1598013.0
-1597563.0
-1597997.0
-1598431.0
-1598277.0
-1597859.0
-1598757.0
-1598463.0
-1598709.0
-1599019.0
-1598787.0
-1599067.0
-1598833.0
-1599407.0
-1599143.0
-1599375.0
-1599655.0
-1600507.0
-1600753.0
-1600273.0
-1600677.0
-1601529.0
-1601343.0
-1601125.0
-1601591.0
-1602023.0
-1601947.0
-1601729.0
-1601265.0
-1601637.0
-1601961.0
-1601405.0
-1600753.0
-1600769.0
-1601079.0
-1600925.0
-1600583.0
-1600041.0
-1599531.0
-1600041.0
-1599731.0
-1598833.0
-1598679.0
-1599423.0
-1599081.0
-1599081.0
-1599979.0
-1599485.0
-1599143.0
-1598957.0
-1599299.0
-1599081.0
-1599531.0
-1599561.0
-1599809.0
-1599841.0
-1599515.0
-1599731.0
-1599793.0
-1599531.0
-1599933.0
-1600273.0
-1599949.0
-1600073.0
-1599917.0
-1599871.0
-1599979.0
-1600847.0
-1600925.0
-1600661.0
-1601357.0
-1600955.0
-1601311.0
-1601529.0
-1601807.0
-1601885.0
-1601653.0
-1602441.0
-1602891.0
-1603077.0
-1603449.0
-1602953.0
-1603015.0
-1603449.0
-1604223.0
-1604795.0
-1603929.0
-1604517.0
-1604719.0
-1605183.0
-1605307.0
-1604749.0
-1604657.0
-1604997.0
-1604177.0
-1604285.0
-1603897.0
-1603123.0
-1603433.0
-1603355.0
-1603077.0
-1602721.0
-1603015.0
-1602503.0
-1602675.0
-1601467.0
-1602287.0
-1601219.0
-1601373.0
-1601343.0
-1601419.0
-1601435.0
-1600987.0
-1601295.0
-1601653.0
-1600987.0
-1601777.0
-1601389.0
-1600955.0
-1601095.0
-1601063.0
-1601187.0
-1601637.0
-1601249.0
-1600847.0
-1601715.0
-1601667.0
-1601715.0
-1601079.0
-1601373.0
-1601343.0
-1601637.0
-1601745.0
-1601761.0
-1601667.0
-1602209.0
-1602209.0
-1602257.0
-1602023.0
-1602519.0
-1602565.0
-1602689.0
-1602921.0
-1603341.0
-1603635.0
-1603727.0
-1603495.0
-1603665.0
-1604223.0
-1604657.0
-1604625.0
-1604455.0
-1604363.0
-1604409.0
-1604393.0
-1604981.0
-1603897.0
-1604253.0
-1603883.0
-1603821.0
-1603635.0
-1603759.0
-1602705.0
-1602395.0
-1601869.0
-1601357.0
-1601419.0
-1601807.0
-1601079.0
-1601141.0
-1601173.0
-1600599.0
-1600429.0
-1599763.0
-1600785.0
-1600847.0
-1600011.0
-1599793.0
-1600863.0
-1600259.0
-1600445.0
-1599453.0
-1600041.0
-1599731.0
-1600135.0
-1599903.0
-1599917.0
-1599515.0
-1600367.0
-1599205.0
-1599731.0
-1599361.0
-1599423.0
-1600351.0
-1600273.0
-1599747.0
-1599669.0
-1600289.0
-1600367.0
-1600321.0
-1600073.0
-1600785.0
-1600739.0
-1600011.0
-1601001.0
-1601063.0
-1601373.0
-1601265.0
-1601017.0
-1601559.0
-1601621.0
-1602039.0
-1601823.0
-1602163.0
-1601481.0
-1602689.0
-1602689.0
-1602427.0
-1602303.0
-1602921.0
-1602071.0
-1602613.0
-1602179.0
-1601807.0
-1601761.0
-1601419.0
-1600909.0
-1600027.0
-1599731.0
-1599313.0
-1598709.0
-1598059.0
-1597873.0
-1597549.0
-1596449.0
-1596247.0
-1596247.0
-1596061.0
-1595457.0
-1594777.0
-1595055.0
-1593893.0
-1594235.0
-1593893.0
-1593863.0
-1593569.0
-1593615.0
-1593429.0
-1593197.0
-1592949.0
-1593289.0
-1592981.0
-1593351.0
-1593057.0
-1592779.0
-1592593.0
-1592547.0
-1593165.0
-1592453.0
-1592593.0
-1593165.0
-1592809.0
-1593445.0
-1593289.0
-1593585.0
-1593305.0
-1593043.0
-1593523.0
-1593831.0
-1595071.0
-1594823.0
-1594483.0
-1594791.0
-1594545.0
-1595303.0
-1595783.0
-1595875.0
-1595937.0
-1596309.0
-1597177.0
-1597207.0
-1597177.0
-1597687.0
-1597889.0
-1597859.0
-1597997.0
-1598043.0
-1598013.0
-1598167.0
-1597935.0
-1597223.0
-1596959.0
-1596077.0
-1595813.0
-1596185.0
-1594977.0
-1595039.0
-1595009.0
-1594219.0
-1593879.0
-1593801.0
-1593367.0
-1593243.0
-1593645.0
-1592685.0
-1593413.0
-1593197.0
-1592981.0
-1592795.0
-1592733.0
-1592795.0
-1593151.0
-1592299.0
-1592515.0
-1592609.0
-1592841.0
-1592763.0
-1592345.0
-1592763.0
-1592639.0
-1591819.0
-1592159.0
-1592019.0
-1591401.0
-1592655.0
-1592671.0
-1592623.0
-1592283.0
-1592191.0
-1592841.0
-1592407.0
-1592655.0
-1592623.0
-1593135.0
-1593289.0
-1593413.0
-1593909.0
-1593769.0
-1594249.0
-1593645.0
-1594421.0
-1594901.0
-1594467.0
-1594745.0
-1595349.0
-1595985.0
-1595567.0
-1596341.0
-1596573.0
-1596759.0
-1596573.0
-1596511.0
-1596295.0
-1596403.0
-1596061.0
-1596233.0
-1595753.0
-1594637.0
-1594761.0
-1594297.0
-1594141.0
-1593367.0
-1593135.0
-1593259.0
-1592515.0
-1591989.0
-1592051.0
-1592453.0
-1591617.0
-1591493.0
-1591277.0
-1591183.0
-1591261.0
-1591385.0
-1590997.0
-1590333.0
-1590859.0
-1590565.0
-1590905.0
-1590239.0
-1590765.0
-1590735.0
-1590735.0
-1590627.0
-1590859.0
-1590471.0
-1589667.0
-1590347.0
-1589837.0
-1590147.0
-1590641.0
-1589899.0
-1590347.0
-1590037.0
-1590549.0
-1590255.0
-1590735.0
-1590997.0
-1591183.0
-1591695.0
-1591293.0
-1591385.0
-1591293.0
-1591463.0
-1591741.0
-1591989.0
-1592051.0
-1592391.0
-1591943.0
-1592547.0
-1592577.0
-1593119.0
-1592919.0
-1593475.0
-1593523.0
-1594111.0
-1593801.0
-1593893.0
-1593351.0
-1593987.0
-1594203.0
-1593585.0
-1593305.0
-1592299.0
-1592329.0
-1591741.0
-1591307.0
-1590347.0
-1590503.0
-1590271.0
-1590549.0
-1589789.0
-1589449.0
-1589449.0
-1588721.0
-1588923.0
-1589047.0
-1588103.0
-1588087.0
-1587607.0
-1587745.0
-1588055.0
-1587839.0
-1588117.0
-1587637.0
-1587683.0
-1587699.0
-1587437.0
-1587375.0
-1586971.0
-1586801.0
-1586971.0
-1586971.0
-1587281.0
-1586477.0
-1586755.0
-1587251.0
-1586785.0
-1587095.0
-1586491.0
-1586693.0
-1587281.0
-1587033.0
-1587173.0
-1587281.0
-1587793.0
-1587777.0
-1587839.0
-1587561.0
-1587993.0
-1588041.0
-1587917.0
-1588489.0
-1588567.0
-1588103.0
-1588597.0
-1588397.0
-1589263.0
-1588939.0
-1589619.0
-1589247.0
-1589899.0
-1590301.0
-1590425.0
-1589821.0
-1589929.0
-1589805.0
-1590007.0
-1589619.0
-1589217.0
-1588443.0
-1588025.0
-1587807.0
-1586709.0
-1586599.0
-1586197.0
-1585671.0
-1585841.0
-1585129.0
-1584911.0
-1584169.0
-1584479.0
-1583719.0
-1583163.0
-1583595.0
-1583533.0
-1583163.0
-1582743.0
-1582573.0
-1582713.0
-1582915.0
-1582435.0
-1582341.0
-1583131.0
-1582589.0
-1581985.0
-1582759.0
-1582419.0
-1582079.0
-1581753.0
-1581257.0
-1581475.0
-1581505.0
-1580871.0
-1581165.0
-1581475.0
-1581489.0
-1581629.0
-1582001.0
-1581659.0
-1581861.0
-1581861.0
-1581645.0
-1582063.0
-1582017.0
-1582945.0
-1582063.0
-1582683.0
-1582743.0
-1582899.0
-1582511.0
-1583225.0
-1582667.0
-1583007.0
-1583781.0
-1584247.0
-1584215.0
-1584137.0
-1584865.0
-1584525.0
-1585191.0
-1585453.0
-1585639.0
-1585671.0
-1585687.0
-1585701.0
-1585345.0
-1586167.0
-1584835.0
-1585097.0
-1584417.0
-1584385.0
-1583951.0
-1583673.0
-1583409.0
-1582605.0
-1582573.0
-1581955.0
-1582063.0
-1581489.0
-1581257.0
-1581273.0
-1580607.0
-1580467.0
-1580529.0
-1579925.0
-1580127.0
-1580329.0
-1580529.0
-1580297.0
-1580343.0
-1580529.0
-1580699.0
-1580405.0
-1580561.0
-1580623.0
-1580281.0
-1580421.0
-1580637.0
-1580499.0
-1580995.0
-1580499.0
-1580281.0
-1580901.0
-1580391.0
-1580761.0
-1581397.0
-1581413.0
-1581041.0
-1581055.0
-1581629.0
-1581505.0
-1582155.0
-1582263.0
-1582621.0
-1582867.0
-1582899.0
-1583069.0
-1583457.0
-1583193.0
-1583533.0
-1583781.0
-1584309.0
-1584137.0
-1585129.0
-1585237.0
-1585779.0
-1585671.0
-1585795.0
-1585981.0
-1586337.0
-1586677.0
-1586693.0
-1587251.0
-1586817.0
-1586305.0
-1586445.0
-1586445.0
-1585919.0
-1586011.0
-1585485.0
-1584897.0
-1584911.0
-1584215.0
-1584369.0
-1584277.0
-1584091.0
-1583813.0
-1583595.0
-1583441.0
-1583363.0
-1583611.0
-1583719.0
-1583101.0
-1582961.0
-1583595.0
-1583333.0
-1583239.0
-1583859.0
-1583595.0
-1583643.0
-1583657.0
-1583519.0
-1583751.0
-1583889.0
-1584185.0
-1584231.0
-1584431.0
-1583735.0
-1583519.0
-1584215.0
-1584013.0
-1583889.0
-1584231.0
-1584633.0
-1584587.0
-1585097.0
-1585547.0
-1585253.0
-1585315.0
-1585253.0
-1585671.0
-1585795.0
-1586181.0
-1586863.0
-1586661.0
-1587003.0
-1587095.0
-1587545.0
-1587483.0
-1588117.0
-1588319.0
-1589263.0
-1589419.0
-1589433.0
-1589837.0
-1590053.0
-1590115.0
-1590271.0
-1590347.0
-1590441.0
-1590023.0
-1589713.0
-1590161.0
-1589309.0
-1588645.0
-1589201.0
-1588551.0
-1588459.0
-1588567.0
-1588427.0
-1587917.0
-1588133.0
-1587917.0
-1588349.0
-1588225.0
-1587715.0
-1587855.0
-1587637.0
-1587545.0
-1588737.0
-1588753.0
-1587807.0
-1588257.0
-1588287.0
-1588845.0
-1589247.0
-1588877.0
-1589031.0
-1588645.0
-1588985.0
-1588815.0
-1589357.0
-1589077.0
-1589341.0
-1589697.0
-1589743.0
-1590037.0
-1590301.0
-1590177.0
-1590455.0
-1590053.0
-1590843.0
-1591137.0
-1591107.0
-1591013.0
-1591849.0
-1591989.0
-1592159.0
-1592081.0
-1592809.0
-1593227.0
-1593769.0
-1593197.0
-1594017.0
-1593863.0
-1594065.0
-1594761.0
-1594885.0
-1595257.0
-1595087.0
-1595597.0
-1595813.0
-1596201.0
-1596015.0
-1595875.0
-1595535.0
-1595241.0
-1595333.0
-1595071.0
-1594901.0
-1595195.0
-1594607.0
-1594729.0
-1594327.0
-1593755.0
-1593801.0
-1593429.0
-1593119.0
-1593523.0
-1593057.0
-1593553.0
-1593491.0
-1593305.0
-1592795.0
-1593043.0
-1593227.0
-1593275.0
-1593289.0
-1594389.0
-1593801.0
-1593491.0
-1593879.0
-1593925.0
-1594017.0
-1594389.0
-1594621.0
-1593801.0
-1594065.0
-1594095.0
-1593893.0
-1594683.0
-1594575.0
-1594699.0
-1595117.0
-1594607.0
-1595365.0
-1594791.0
-1595861.0
-1596185.0
-1596061.0
-1596527.0
-1596867.0
-1597021.0
-1597549.0
-1597719.0
-1598463.0
-1597781.0
-1598339.0
-1598973.0
-1598757.0
-1599731.0
-1599499.0
-1599407.0
-1600335.0
-1599995.0
-1600723.0
-1601017.0
-1601451.0
-1601219.0
-1600955.0
-1601017.0
-1600769.0
-1600863.0
-1600445.0
-1599793.0
-1600351.0
-1599067.0
-1599391.0
-1599407.0
-1598709.0
-1598431.0
-1598339.0
-1598509.0
-1598339.0
-1598121.0
-1597735.0
-1597905.0
-1598043.0
-1597997.0
-1598447.0
-1597703.0
-1598245.0
-1598339.0
-1598307.0
-1597859.0
-1598725.0
-1598029.0
-1598493.0
-1598121.0
-1598849.0
-1598245.0
-1598647.0
-1598199.0
-1598601.0
-1598245.0
-1599313.0
-1598741.0
-1598803.0
-1599005.0
-1599205.0
-1599175.0
-1599175.0
-1599809.0
-1599485.0
-1600197.0
-1600181.0
-1600693.0
-1600181.0
-1600459.0
-1601095.0
-1601451.0
-1601543.0
-1601683.0
-1602411.0
-1602271.0
-1602411.0
-1602055.0
-1603061.0
-1603355.0
-1603759.0
-1603913.0
-1604145.0
-1603991.0
-1604905.0
-1604749.0
-1604609.0
-1604331.0
-1604641.0
-1604393.0
-1604037.0
-1603821.0
-1603309.0
-1603247.0
-1603681.0
-1602953.0
-1602983.0
-1603217.0
-1602875.0
-1602551.0
-1602689.0
-1602241.0
-1602133.0
-1602613.0
-1602055.0
-1602101.0
-1602613.0
-1602411.0
-1602271.0
-1601791.0
-1602613.0
-1602613.0
-1602055.0
-1602257.0
-1602565.0
-1602751.0
-1602721.0
-1602813.0
-1602689.0
-1602519.0
-1602395.0
-1602519.0
-1602427.0
-1603015.0
-1602907.0
-1602829.0
-1603045.0
-1603511.0
-1603789.0
-1603975.0
-1603929.0
-1604099.0
-1604363.0
-1604843.0
-1604657.0
-1604997.0
-1604517.0
-1605167.0
-1605183.0
-1605029.0
-1605307.0
-1605989.0
-1606189.0
-1606035.0
-1606143.0
-1606809.0
-1607429.0
-1607319.0
-1607367.0
-1607443.0
-1607289.0
-1608187.0
-1608079.0
-1608527.0
-1608451.0
-1608389.0
-1608157.0
-1607567.0
-1607259.0
-1607769.0
-1607259.0
-1606839.0
-1606421.0
-1605879.0
-1605709.0
-1605957.0
-1605803.0
-1605523.0
-1604857.0
-1605415.0
-1604951.0
-1605275.0
-1604889.0
-1605275.0
-1604547.0
-1604563.0
-1604053.0
-1605013.0
-1604981.0
-1605029.0
-1604811.0
-1605075.0
-1604827.0
-1605151.0
-1604919.0
-1604161.0
-1605043.0
-1604997.0
-1604579.0
-1605337.0
-1604671.0
-1605183.0
-1604997.0
-1605075.0
-1605307.0
-1605151.0
-1605137.0
-1605895.0
-1605261.0
-1606035.0
-1605663.0
-1605585.0
-1606003.0
-1605477.0
-1606189.0
-1605879.0
-1606035.0
-1606097.0
-1606359.0
-1606871.0
-1607087.0
-1607025.0
-1607319.0
-1607753.0
-1607677.0
-1607491.0
-1607753.0
-1607691.0
-1607801.0
-1607305.0
-1607459.0
-1607475.0
-1607025.0
-1606669.0
-1606267.0
-1606717.0
-1606421.0
-1606499.0
-1606205.0
-1605803.0
-1605571.0
-1606267.0
-1605105.0
-1605493.0
-1605477.0
-1605617.0
-1605539.0
-1605199.0
-1605275.0
-1605431.0
-1605523.0
-1605679.0
-1606159.0
-1605803.0
-1605879.0
-1605461.0
-1606469.0
-1606283.0
-1606607.0
-1606577.0
-1606933.0
-1606221.0
-1606469.0
-1607351.0
-1607351.0
-1607165.0
-1607971.0
-1607491.0
-1607861.0
-1608295.0
-1607971.0
-1608373.0
-1608621.0
-1609055.0
-1608869.0
-1609179.0
-1609659.0
-1609411.0
-1610417.0
-1609937.0
-1610511.0
-1611207.0
-1610587.0
-1611857.0
-1611471.0
-1612089.0
-1612415.0
-1612647.0
-1612555.0
-1613159.0
-1613529.0
-1613313.0
-1613297.0
-1613035.0
-1612601.0
-1612879.0
-1612941.0
-1612647.0
-1612089.0
-1612369.0
-1611981.0
-1612507.0
-1611471.0
-1611841.0
-1611827.0
-1611795.0
-1612075.0
-1611811.0
-1611393.0
-1611113.0
-1610991.0
-1611299.0
-1611625.0
-1611439.0
-1611223.0
-1611547.0
-1611145.0
-1611997.0
-1611779.0
-1611889.0
-1611409.0
-1612245.0
-1612259.0
-1611811.0
-1612043.0
-1611703.0
-1612569.0
-1612539.0
-1612229.0
-1612911.0
-1612709.0
-1613297.0
-1613035.0
-1613019.0
-1613515.0
-1613809.0
-1614103.0
-1613777.0
-1614165.0
-1614521.0
-1614831.0
-1615079.0
-1615265.0
-1615481.0
-1615497.0
-1615945.0
-1616549.0
-1616643.0
-1616163.0
-1616751.0
-1617231.0
-1617959.0
-1617495.0
-1618099.0
-1618655.0
-1619073.0
-1618949.0
-1619121.0
-1619135.0
-1619213.0
-1618825.0
-1618579.0
-1618407.0
-1619291.0
-1617959.0
-1618439.0
-1618005.0
-1618207.0
-1617277.0
-1617711.0
-1617789.0
-1617525.0
-1617231.0
-1616859.0
-1617711.0
-1617385.0
-1616689.0
-1617495.0
-1617433.0
-1616673.0
-1617199.0
-1617091.0
-1617123.0
-1617169.0
-1617091.0
-1617447.0
-1616953.0
-1617185.0
-1617695.0
-1617835.0
-1617587.0
-1617587.0
-1616843.0
-1617975.0
-1617633.0
-1617495.0
-1617137.0
-1617679.0
-1617927.0
-1618455.0
-1617913.0
-1617989.0
-1618221.0
-1617989.0
-1618345.0
-1617943.0
-1618903.0
-1618903.0
-1619027.0
-1618083.0
-1619183.0
-1619151.0
-1619213.0
-1619197.0
-1619553.0
-1620685.0
-1619847.0
-1619801.0
-1620499.0
-1620127.0
-1620947.0
-1620809.0
-1620855.0
-1620809.0
-1621041.0
-1621257.0
-1621289.0
-1621071.0
-1621025.0
-1621521.0
-1620931.0
-1620451.0
-1620359.0
-1620297.0
-1619663.0
-1619553.0
-1620019.0
-1619585.0
-1618841.0
-1619073.0
-1618887.0
-1618887.0
-1618873.0
-1618469.0
-1618593.0
-1618331.0
-1618671.0
-1618191.0
-1618625.0
-1618067.0
-1618501.0
-1618407.0
-1617989.0
-1618423.0
-1618083.0
-1617913.0
-1618175.0
-1618145.0
-1617975.0
-1618175.0
-1617789.0
-1617927.0
-1618021.0
-1618563.0
-1618269.0
-1618485.0
-1618717.0
-1618531.0
-1618763.0
-1619367.0
-1618795.0
-1618609.0
-1619213.0
-1619183.0
-1619429.0
-1619787.0
-1619585.0
-1620127.0
-1619987.0
-1620297.0
-1620637.0
-1620901.0
-1621025.0
-1621289.0
-1621041.0
-1621303.0
-1621241.0
-1621877.0
-1622233.0
-1622373.0
-1622915.0
-1622915.0
-1623395.0
-1623301.0
-1623765.0
-1623689.0
-1623905.0
-1623457.0
-1623533.0
-1623999.0
-1622837.0
-1623425.0
-1622589.0
-1622403.0
-1622171.0
-1621969.0
-1622001.0
-1622093.0
-1621273.0
-1621535.0
-1621721.0
-1621505.0
-1620885.0
-1621551.0
-1620623.0
-1620761.0
-1621381.0
-1621427.0
-1620901.0
-1621211.0
-1621521.0
-1621535.0
-1621133.0
-1621459.0
-1621473.0
-1620931.0
-1621489.0
-1621365.0
-1621459.0
-1621907.0
-1621179.0
-1622125.0
-1621289.0
-1622481.0
-1621939.0
-1621907.0
-1622465.0
-1622279.0
-1622899.0
-1622929.0
-1622573.0
-1623039.0
-1622837.0
-1622899.0
-1623533.0
-1623781.0
-1624339.0
-1623999.0
-1624959.0
-1624571.0
-1624741.0
-1625377.0
-1625299.0
-1625439.0
-1625965.0
-1626413.0
-1626275.0
-1626475.0
-1626925.0
-1627111.0
-1627095.0
-1627591.0
-1628303.0
-1627947.0
-1628505.0
-1628675.0
-1629139.0
-1629357.0
-1629247.0
-1628783.0
-1628319.0
-1628753.0
-1628939.0
-1628985.0
-1627947.0
-1627807.0
-1627513.0
-1627591.0
-1627575.0
-1627141.0
-1626337.0
-1626723.0
-1626785.0
-1625577.0
-1625841.0
-1625501.0
-1625175.0
-1625469.0
-1625485.0
-1625423.0
-1624617.0
-1625207.0
-1624509.0
-1624603.0
-1625515.0
-1625593.0
-1625159.0
-1625315.0
-1625005.0
-1624819.0
-1624849.0
-1624849.0
-1625191.0
-1625391.0
-1625129.0
-1625221.0
-1625005.0
-1625083.0
-1624911.0
-1625159.0
-1625159.0
-1624695.0
-1625811.0
-1624959.0
-1625763.0
-1625933.0
-1625995.0
-1625965.0
-1626461.0
-1626337.0
-1625857.0
-1626801.0
-1626755.0
-1626677.0
-1627219.0
-1627111.0
-1627203.0
-1627513.0
-1628211.0
-1628211.0
-1627839.0
-1628149.0
-1629001.0
-1628597.0
-1629605.0
-1629465.0
-1629481.0
-1629665.0
-1629851.0
-1629837.0
-1630099.0
-1630193.0
-1630533.0
-1630549.0
-1630827.0
-1630921.0
-1631277.0
-1631245.0
-1630255.0
-1629945.0
-1629527.0
-1628767.0
-1629001.0
-1629093.0
-1628815.0
-1628179.0
-1627653.0
-1628009.0
-1627529.0
-1626955.0
-1626569.0
-1626353.0
-1626553.0
-1625841.0
-1625501.0
-1626321.0
-1625625.0
-1625763.0
-1625299.0
-1625981.0
-1625035.0
-1624989.0
-1625299.0
-1624927.0
-1624835.0
-1625129.0
-1624803.0
-1624525.0
-1624741.0
-1624927.0
-1624509.0
-1624773.0
-1624215.0
-1624245.0
-1624123.0
-1623859.0
-1624013.0
-1624215.0
-1623689.0
-1624185.0
-1623425.0
-1623967.0
-1623951.0
-1624137.0
-1624013.0
-1624401.0
-1623875.0
-1623889.0
-1624199.0
-1624339.0
-1624293.0
-1624355.0
-1623905.0
-1624711.0
-1624231.0
-1624603.0
-1624231.0
-1624463.0
-1624711.0
-1625361.0
-1625469.0
-1625237.0
-1625035.0
-1625207.0
-1624649.0
-1625563.0
-1625515.0
-1625485.0
-1625903.0
-1625129.0
-1624927.0
-1625221.0
-1625113.0
-1624927.0
-1624215.0
-1624091.0
-1623595.0
-1623085.0
-1622419.0
-1622093.0
-1621567.0
-1621227.0
-1620839.0
-1620855.0
-1620389.0
-1620157.0
-1619709.0
-1619847.0
-1619539.0
-1619043.0
-1619151.0
-1619353.0
-1619321.0
-1618997.0
-1618625.0
-1618935.0
-1618641.0
-1618517.0
-1618671.0
-1618763.0
-1618331.0
-1618887.0
-1618609.0
-1618469.0
-1618841.0
-1618547.0
-1618903.0
-1618237.0
-1618067.0
-1618485.0
-1618795.0
-1618517.0
-1618423.0
-1618547.0
-1619477.0
-1619305.0
-1619631.0
-1619245.0
-1618935.0
-1619245.0
-1619677.0
-1619663.0
-1619305.0
-1619399.0
-1620561.0
-1620359.0
-1620003.0
-1620607.0
-1620513.0
-1621087.0
-1621675.0
-1620699.0
-1621597.0
-1621769.0
-1621597.0
-1622279.0
-1622125.0
-1622697.0
-1622775.0
-1623147.0
-1623457.0
-1623735.0
-1623317.0
-1624013.0
-1623875.0
-1623519.0
-1623983.0
-1623519.0
-1623039.0
-1622557.0
-1622139.0
-1622015.0
-1621799.0
-1621165.0
-1620437.0
-1621195.0
-1620513.0
-1619941.0
-1619663.0
-1619305.0
-1618655.0
-1619043.0
-1618903.0
-1618099.0
-1618671.0
-1617711.0
-1617913.0
-1617741.0
-1617741.0
-1617557.0
-1617107.0
-1617215.0
-1617309.0
-1617277.0
-1616891.0
-1616937.0
-1616395.0
-1616859.0
-1616813.0
-1616565.0
-1616627.0
-1616503.0
-1616673.0
-1616271.0
-1616349.0
-1616131.0
-1616349.0
-1616411.0
-1616735.0
-1616379.0
-1616813.0
-1616411.0
-1617045.0
-1616905.0
-1616829.0
-1617185.0
-1617231.0
-1617711.0
-1617277.0
-1617587.0
-1617695.0
-1617727.0
-1618051.0
-1618469.0
-1618037.0
-1618393.0
-1618733.0
-1619027.0
-1619213.0
-1619321.0
-1618641.0
-1619073.0
-1619987.0
-1620297.0
-1619971.0
-1620901.0
-1620871.0
-1620963.0
-1621195.0
-1620591.0
-1620747.0
-1620421.0
-1620375.0
-1619957.0
-1619663.0
-1620157.0
-1619151.0
-1618547.0
-1618253.0
-1618129.0
-1617881.0
-1617355.0
-1616937.0
-1616829.0
-1616425.0
-1615961.0
-1615791.0
-1616069.0
-1615543.0
-1614923.0
-1614583.0
-1614149.0
-1614289.0
-1613731.0
-1613453.0
-1613343.0
-1613529.0
-1612833.0
-1613003.0
-1612631.0
-1612957.0
-1612183.0
-1612679.0
-1612213.0
-1611687.0
-1611625.0
-1612043.0
-1611409.0
-1611285.0
-1610757.0
-1610991.0
-1610897.0
-1610479.0
-1610603.0
-1610603.0
-1610711.0
-1610991.0
-1610805.0
-1610959.0
-1610743.0
-1610851.0
-1611053.0
-1610231.0
-1610835.0
-1610805.0
-1610975.0
-1611253.0
-1610773.0
-1610757.0
-1611067.0
-1611005.0
-1611315.0
-1611253.0
-1610511.0
-1610851.0
-1611563.0
-1611749.0
-1611655.0
-1611625.0
-1611269.0
-1611841.0
-1611393.0
-1611827.0
-1611857.0
-1612631.0
-1611903.0
-1612617.0
-1613019.0
-1612801.0
-1612911.0
-1613359.0
-1612555.0
-1612771.0
-1612383.0
-1611889.0
-1612291.0
-1611533.0
-1611145.0
-1610371.0
-1610091.0
-1609783.0
-1608713.0
-1608713.0
-1608017.0
-1607367.0
-1607443.0
-1607259.0
-1606747.0
-1606375.0
-1605895.0
-1605415.0
-1605151.0
-1604781.0
-1604625.0
-1604455.0
-1604347.0
-1604377.0
-1603309.0
-1603929.0
-1603821.0
-1603061.0
-1603263.0
-1603495.0
-1603201.0
-1603217.0
-1602597.0
-1602861.0
-1602675.0
-1602581.0
-1602829.0
-1603061.0
-1601899.0
-1602349.0
-1602813.0
-1602875.0
-1601885.0
-1602565.0
-1602705.0
-1602319.0
-1603107.0
-1602689.0
-1602953.0
-1603139.0
-1602937.0
-1603247.0
-1603371.0
-1603557.0
-1603093.0
-1603525.0
-1603603.0
-1604363.0
-1604115.0
-1604191.0
-1603897.0
-1604115.0
-1604191.0
-1604099.0
-1604533.0
-1603867.0
-1604719.0
-1604595.0
-1604641.0
-1604765.0
-1604129.0
-1604765.0
-1604981.0
-1605075.0
-1605307.0
-1606113.0
-1605817.0
-1606159.0
-1606189.0
-1605493.0
-1604889.0
-1605043.0
-1604873.0
-1603557.0
-1603155.0
-1603155.0
-1602023.0
-1601513.0
-1601467.0
-1601807.0
-1600925.0
-1600367.0
-1600197.0
-1599979.0
-1599779.0
-1599127.0
-1598493.0
-1598215.0
-1597765.0
-1597859.0
-1597379.0
-1596789.0
-1597317.0
-1597083.0
-1597239.0
-1596837.0
-1596417.0
-1596837.0
-1596185.0
-1596325.0
-1595875.0
-1595985.0
-1595907.0
-1595953.0
-1595365.0
-1595039.0
-1594947.0
-1595039.0
-1594931.0
-1594839.0
-1595333.0
-1595087.0
-1594963.0
-1595225.0
-1595381.0
-1594853.0
-1595179.0
-1595257.0
-1595395.0
-1595737.0
-1595629.0
-1595969.0
-1596775.0
-1595891.0
-1596061.0
-1596681.0
-1596495.0
-1596449.0
-1596945.0
-1596775.0
-1597317.0
-1596897.0
-1597425.0
-1597563.0
-1597735.0
-1597935.0
-1598307.0
-1598229.0
-1598463.0
-1598385.0
-1598633.0
-1598989.0
-1599127.0
-1599067.0
-1598881.0
-1598601.0
-1598447.0
-1597765.0
-1597501.0
-1596945.0
-1596557.0
-1595875.0
-1595705.0
-1595025.0
-1595303.0
-1594095.0
-1593707.0
-1592995.0
-1593227.0
-1592361.0
-1591943.0
-1592005.0
-1591773.0
-1591245.0
-1590565.0
-1590719.0
-1590517.0
-1590161.0
-1589697.0
-1589821.0
-1590085.0
-1590023.0
-1590223.0
-1589619.0
-1588767.0
-1588953.0
-1588939.0
-1588675.0
-1588163.0
-1588489.0
-1588381.0
-1587855.0
-1588117.0
-1587621.0
-1587607.0
-1587343.0
-1587251.0
-1587235.0
-1587235.0
-1587019.0
-1586925.0
-1586971.0
-1586941.0
-1587437.0
-1586957.0
-1587203.0
-1587683.0
-1588087.0
-1587637.0
-1587607.0
-1587931.0
-1588551.0
-1588489.0
-1588443.0
-1589217.0
-1589279.0
-1589295.0
-1589341.0
-1589789.0
-1589945.0
-1589775.0
-1589913.0
-1590487.0
-1590689.0
-1590813.0
-1591121.0
-1591369.0
-1591029.0
-1591307.0
-1590875.0
-1591075.0
-1590983.0
-1590285.0
-1589697.0
-1589001.0
-1588459.0
-1588427.0
-1588195.0
-1587561.0
-1587281.0
-1586537.0
-1586553.0
-1586197.0
-1585887.0
-1585811.0
-1585655.0
-1584757.0
-1584137.0
-1584247.0
-1584385.0
-1583705.0
-1583889.0
-1583813.0
-1583379.0
-1583053.0
-1583643.0
-1583085.0
-1583409.0
-1582883.0
-1583689.0
-1583007.0
-1582187.0
-1582743.0
-1582497.0
-1582759.0
-1582651.0
-1581923.0
-1581939.0
-1582141.0
-1581969.0
-1581985.0
-1581907.0
-1581599.0
-1582729.0
-1582017.0
-1581831.0
-1581923.0
-1582017.0
-1581675.0
-1581567.0
-1581737.0
-1581707.0
-1581939.0
-1582573.0
-1581877.0
-1581799.0
-1581721.0
-1582217.0
-1581923.0
-1582387.0
-1581799.0
-1582295.0
-1582373.0
-1582141.0
-1581893.0
-1582915.0
-1582713.0
-1582187.0
-1582511.0
-1582791.0
-1582449.0
-1582311.0
-1582961.0
-1582387.0
-1582435.0
-1582295.0
-1581521.0
-1581227.0
-1580809.0
-1579911.0
-1579275.0
-1578811.0
-1578099.0
-1577355.0
-1576921.0
-1576689.0
-1575527.0
-1575063.0
-1574505.0
-1573701.0
-1573283.0
-1572849.0
-1572075.0
-1572121.0
-1572059.0
-1571177.0
-1571207.0
-1570835.0
-1570557.0
-1569735.0
-1569859.0
-1569829.0
-1569333.0
-1568651.0
-1568651.0
-1568295.0
-1567769.0
-1568265.0
-1567661.0
-1567475.0
-1567289.0
-1566825.0
-1566717.0
-1566483.0
-1566283.0
-1566251.0
-1565741.0
-1565585.0
-1565989.0
-1565725.0
-1565075.0
-1565803.0
-1565447.0
-1565213.0
-1565741.0
-1565523.0
-1565059.0
-1565633.0
-1565849.0
-1565973.0
-1565757.0
-1565895.0
-1566051.0
-1566097.0
-1566175.0
-1566871.0
-1566329.0
-1566717.0
-1566855.0
-1567243.0
-1566747.0
-1567413.0
-1567181.0
-1567289.0
-1567443.0
-1567707.0
-1567739.0
-1567289.0
-1567025.0
-1566499.0
-1566469.0
-1565709.0
-1564905.0
-1564455.0
-1563929.0
-1563649.0
-1562689.0
-1561729.0
-1561419.0
-1560599.0
-1560289.0
-1560475.0
-1559267.0
-1559205.0
-1558757.0
-1557859.0
-1557673.0
-1557905.0
-1557673.0
-1557161.0
-1556851.0
-1556759.0
-1556541.0
-1556511.0
-1556201.0
-1556077.0
-1556511.0
-1555457.0
-1555473.0
-1555659.0
-1555505.0
-1555349.0
-1554931.0
-1554931.0
-1554931.0
-1555319.0
-1554793.0
-1554839.0
-1554265.0
-1554467.0
-1554777.0
-1554203.0
-1554869.0
-1555039.0
-1554591.0
-1554607.0
-1555009.0
-1554901.0
-1554823.0
-1555535.0
-1554793.0
-1555381.0
-1555737.0
-1554993.0
-1555907.0
-1555303.0
-1555659.0
-1556247.0
-1556341.0
-1555767.0
-1556465.0
-1556929.0
-1556541.0
-1556867.0
-1556851.0
-1556775.0
-1557083.0
-1557409.0
-1557393.0
-1557347.0
-1556541.0
-1556031.0
-1555643.0
-1555551.0
-1554421.0
-1553987.0
-1553043.0
-1552361.0
-1551865.0
-1551401.0
-1550889.0
-1550161.0
-1549373.0
-1548891.0
-1549155.0
-1548769.0
-1547467.0
-1547715.0
-1547405.0
-1547219.0
-1546909.0
-1547033.0
-1546569.0
-1545997.0
-1546197.0
-1545919.0
-1544989.0
-1545253.0
-1545485.0
-1545051.0
-1544851.0
-1544695.0
-1545315.0
-1544649.0
-1544123.0
-1544045.0
-1543595.0
-1543751.0
-1544385.0
-1543689.0
-1543705.0
-1543533.0
-1543627.0
-1543689.0
-1543379.0
-1543425.0
-1543905.0
-1543999.0
-1543891.0
-1543797.0
-1544013.0
-1544385.0
-1544153.0
-1544927.0
-1544865.0
-1545393.0
-1545547.0
-1545067.0
-1545825.0
-1544789.0
-1546011.0
-1546105.0
-1546477.0
-1546847.0
-1546367.0
-1546615.0
-1546647.0
-1547019.0
-1547235.0
-1547203.0
-1546957.0
-1546461.0
-1546197.0
-1546135.0
-1545687.0
-1544803.0
-1543287.0
-1542977.0
-1542945.0
-1542265.0
-1541319.0
-1540607.0
-1540081.0
-1539431.0
-1539415.0
-1539105.0
-1538579.0
-1537681.0
-1537385.0
-1536891.0
-1536379.0
-1536317.0
-1536193.0
-1535559.0
-1535373.0
-1535109.0
-1534971.0
-1534909.0
-1534893.0
-1534025.0
-1534243.0
-1533391.0
-1533127.0
-1533469.0
-1532957.0
-1532973.0
-1532569.0
-1532539.0
-1531687.0
-1532213.0
-1532137.0
-1531377.0
-1532167.0
-1531951.0
-1531377.0
-1531021.0
-1531361.0
-1531455.0
-1531083.0
-1531471.0
-1531377.0
-1531377.0
-1531331.0
-1531843.0
-1531253.0
-1531053.0
-1531501.0
-1531145.0
-1531285.0
-1531161.0
-1531485.0
-1531501.0
-1531005.0
-1532059.0
-1532089.0
-1531657.0
-1531749.0
-1531625.0
-1532167.0
-1532555.0
-1531625.0
-1532151.0
-1531965.0
-1531563.0
-1530851.0
-1530015.0
-1529489.0
-1529023.0
-1528931.0
-1527645.0
-1527537.0
-1526871.0
-1526499.0
-1526361.0
-1524997.0
-1525013.0
-1524967.0
-1524487.0
-1524069.0
-1524207.0
-1523603.0
-1522457.0
-1522659.0
-1522457.0
-1522891.0
-1522923.0
-1522675.0
-1522457.0
-1521869.0
-1521777.0
-1522319.0
-1521993.0
-1520925.0
-1521033.0
-1521311.0
-1521327.0
-1520785.0
-1520955.0
-1520879.0
-1520739.0
-1520475.0
-1521079.0
-1520801.0
-1520909.0
-1521173.0
-1520909.0
-1521095.0
-1521001.0
-1521373.0
-1521249.0
-1521529.0
-1521777.0
-1521729.0
-1521977.0
-1521993.0
-1522349.0
-1522535.0
-1522443.0
-1522767.0
-1523711.0
-1523185.0
-1523247.0
-1523465.0
-1523883.0
-1524673.0
-1524455.0
-1525461.0
-1525447.0
-1525121.0
-1525771.0
-1525477.0
-1525399.0
-1525509.0
-1524501.0
-1523945.0
-1524501.0
-1523681.0
-1522271.0
-1522643.0
-1521729.0
-1521715.0
-1521343.0
-1521079.0
-1520739.0
-1520337.0
-1520165.0
-1519299.0
-1518973.0
-1519329.0
-1519097.0
-1519515.0
-1518973.0
-1519453.0
-1519361.0
-1518525.0
-1518539.0
-1518957.0
-1518725.0
-1518555.0
-1518757.0
-1518633.0
-1518509.0
-1518323.0
-1519019.0
-1518493.0
-1519005.0
-1518787.0
-1519345.0
-1519407.0
-1519067.0
-1519593.0
-1519469.0
-1519717.0
-1520321.0
-1520661.0
-1520739.0
-1521497.0
-1521513.0
-1521435.0
-1522179.0
-1521869.0
-1522411.0
-1522195.0
-1522985.0
-1523263.0
-1523573.0
-1524331.0
-1523975.0
-1524811.0
-1524997.0
-1525399.0
-1525571.0
-1526189.0
-1526469.0
-1526825.0
-1527645.0
-1527753.0
-1528109.0
-1528389.0
-1528327.0
-1528187.0
-1527893.0
-1528125.0
-1527181.0
-1527553.0
-1526685.0
-1525989.0
-1526127.0
-1526065.0
-1525493.0
-1525523.0
-1525477.0
-1524827.0
-1524687.0
-1525059.0
-1524657.0
-1523635.0
-1524207.0
-1523883.0
-1523975.0
-1524177.0
-1524285.0
-1524285.0
-1524393.0
-1525013.0
-1524549.0
-1524285.0
-1524471.0
-1524889.0
-1524719.0
-1525029.0
-1525307.0
-1524749.0
-1524827.0
-1525245.0
-1525431.0
-1525043.0
-1525803.0
-1525771.0
-1526283.0
-1525973.0
-1526019.0
-1527057.0
-1527057.0
-1527165.0
-1527149.0
-1527645.0
-1528157.0
-1528713.0
-1528885.0
-1529009.0
-1529133.0
-1530139.0
-1529969.0
-1530759.0
-1530759.0
-1531099.0
-1531671.0
-1532601.0
-1532911.0
-1533127.0
-1533297.0
-1533747.0
-1534367.0
-1534335.0
-1534893.0
-1535341.0
-1535217.0
-1535713.0
-1535589.0
-1535249.0
-1535033.0
-1534785.0
-1534149.0
-1533809.0
-1533591.0
-1532833.0
-1532693.0
-1532151.0
-1531811.0
-1531687.0
-1531843.0
-1531439.0
-1531145.0
-1530727.0
-1530697.0
-1530619.0
-1530479.0
-1530247.0
-1529907.0
-1530247.0
-1530325.0
-1530573.0
-1529921.0
-1530541.0
-1530293.0
-1530339.0
-1529999.0
-1529969.0
-1530247.0
-1529813.0
-1529333.0
-1529921.0
-1529271.0
-1529535.0
-1529675.0
-1529193.0
-1528947.0
-1529303.0
-1529039.0
-1529875.0
-1530061.0
-1530339.0
-1530263.0
-1530061.0
-1529999.0
-1530433.0
-1530417.0
-1531363.0
-1531053.0
-1531207.0
-1531301.0
-1531889.0
-1531781.0
-1531501.0
-1531703.0
-1532089.0
-1531997.0
-1532679.0
-1532679.0
-1533143.0
-1532787.0
-1533221.0
-1533421.0
-1533639.0
-1532585.0
-1532989.0
-1532507.0
-1531903.0
-1531253.0
-1530665.0
-1530401.0
-1529457.0
-1529287.0
-1528651.0
-1527987.0
-1527769.0
-1526917.0
-1526887.0
-1526545.0
-1526251.0
-1526081.0
-1525105.0
-1524951.0
-1524889.0
-1524735.0
-1524363.0
-1523665.0
-1523325.0
-1524285.0
-1523883.0
-1524161.0
-1523835.0
-1523465.0
-1523093.0
-1523651.0
-1523403.0
-1523123.0
-1522985.0
-1523015.0
-1522969.0
-1523231.0
-1522813.0
-1522163.0
-1523169.0
-1522365.0
-1522689.0
-1522937.0
-1522799.0
-1522937.0
-1523047.0
-1522937.0
-1523403.0
-1523433.0
-1523557.0
-1524331.0
-1524239.0
-1524735.0
-1525091.0
-1525091.0
-1525137.0
-1525523.0
-1526035.0
-1526407.0
-1526453.0
-1526855.0
-1527211.0
-1527567.0
-1527645.0
-1528157.0
-1528327.0
-1527955.0
-1527567.0
-1527629.0
-1527351.0
-1527041.0
-1526437.0
-1526593.0
-1525771.0
-1524935.0
-1525461.0
-1524935.0
-1524331.0
-1524223.0
-1524797.0
-1523835.0
-1523773.0
-1524657.0
-1523913.0
-1523959.0
-1524239.0
-1524239.0
-1524083.0
-1523805.0
-1523867.0
-1524843.0
-1524967.0
-1525043.0
-1524981.0
-1524749.0
-1524749.0
-1525013.0
-1525695.0
-1525353.0
-1525819.0
-1526003.0
-1526221.0
-1526159.0
-1526143.0
-1527243.0
-1526825.0
-1527429.0
-1527507.0
-1527987.0
-1528187.0
-1528357.0
-1529179.0
-1529209.0
-1529441.0
-1530387.0
-1530525.0
-1530217.0
-1531145.0
-1531625.0
-1531811.0
-1532213.0
-1532849.0
-1533639.0
-1534041.0
-1533949.0
-1534491.0
-1535217.0
-1535419.0
-1535807.0
-1536425.0
-1537045.0
-1537525.0
-1537509.0
-1537123.0
-1536659.0
-1536333.0
-1536519.0
-1536287.0
-1536363.0
-1535683.0
-1535403.0
-1535403.0
-1534971.0
-1534923.0
-1534459.0
-1534335.0
-1534397.0
-1534691.0
-1534011.0
-1534181.0
-1533391.0
-1533313.0
-1533809.0
-1533591.0
-1533623.0
-1533623.0
-1533591.0
-1533607.0
-1533901.0
-1533887.0
-1533855.0
-1533793.0
-1533825.0
-1533825.0
-1534243.0
-1534011.0
-1533949.0
-1534133.0
-1534133.0
-1534971.0
-1534599.0
-1535033.0
-1535341.0
-1535637.0
-1536411.0
-1536055.0
-1536287.0
-1536597.0
-1536859.0
-1537525.0
-1537695.0
-1537695.0
-1538641.0
-1538547.0
-1538531.0
-1539135.0
-1539647.0
-1539849.0
-1539957.0
-1541149.0
-1540669.0
-1541877.0
-1541799.0
-1542155.0
-1542667.0
-1542977.0
-1542883.0
-1543471.0
-1544323.0
-1544603.0
-1544433.0
-1544943.0
-1543767.0
-1544215.0
-1543859.0
-1543689.0
-1542775.0
-1542667.0
-1542125.0
-1542171.0
-1541799.0
-1541923.0
-1541691.0
-1541505.0
-1541133.0
-1540823.0
-1541241.0
-1540669.0
-1540823.0
-1540561.0
-1540391.0
-1540329.0
-1540391.0
-1540251.0
-1541227.0
-1541041.0
-1541119.0
-1541211.0
-1541629.0
-1541303.0
-1540515.0
-1541737.0
-1541119.0
-1541815.0
-1541675.0
-1541707.0
-1541815.0
-1542203.0
-1542465.0
-1541923.0
-1543023.0
-1542543.0
-1543425.0
-1543643.0
-1543705.0
-1543859.0
-1544247.0
-1544587.0
-1545067.0
-1545283.0
-1545919.0
-1546089.0
-1546785.0
-1546755.0
-1546647.0
-1547375.0
-1548071.0
-1548335.0
-1548737.0
-1548675.0
-1549373.0
-1550007.0
-1550379.0
-1550317.0
-1550875.0
-1551663.0
-1551897.0
-1552531.0
-1553227.0
-1553413.0
-1553305.0
-1553925.0
-1554497.0
-1554203.0
-1553863.0
-1554079.0
-1554079.0
-1554189.0
-1553399.0
-1553321.0
-1552965.0
-1552919.0
-1552501.0
-1552717.0
-1551943.0
-1552083.0
-1552377.0
-1551773.0
-1551835.0
-1551897.0
-1551401.0
-1551725.0
-1551911.0
-1551927.0
-1551773.0
-1551959.0
-1551447.0
-1551881.0
-1551803.0
-1551989.0
-1552531.0
-1552577.0
-1552717.0
-1552763.0
-1552825.0
-1553151.0
-1552981.0
-1553507.0
-1553167.0
-1553677.0
-1553599.0
-1553537.0
-1554017.0
-1554095.0
-1554545.0
-1554683.0
-1554669.0
-1555675.0
-1555489.0
-1556031.0
-1555877.0
-1556325.0
-1556961.0
-1557053.0
-1557579.0
-1557827.0
-1558121.0
-1558261.0
-1559097.0
-1559655.0
-1560135.0
-1560259.0
-1561111.0
-1561095.0
-1561513.0
-1561993.0
-1562365.0
-1562147.0
-1562907.0
-1563541.0
-1564145.0
-1564625.0
-1564765.0
-1564625.0
-1565849.0
-1566127.0
-1566793.0
-1567149.0
-1567351.0
-1567413.0
-1567661.0
-1567785.0
-1567877.0
-1567429.0
-1567629.0
-1567259.0
-1567367.0
-1566917.0
-1567367.0
-1567273.0
-1567243.0
-1567677.0
-1566809.0
-1567135.0
-1567181.0
-1566731.0
-1567025.0
-1566607.0
-1566963.0
-1567645.0
-1567273.0
-1567459.0
-1567831.0
-1567863.0
-1567909.0
-1568481.0
-1568683.0
-1568637.0
-1568637.0
-1568899.0
-1568931.0
-1568761.0
-1569797.0
-1569365.0
-1570247.0
-1569519.0
-1569565.0
-1570309.0
-1571177.0
-1570339.0
-1571191.0
-1571115.0
-1571455.0
-1571827.0
-1572121.0
-1572693.0
-1572817.0
-1572987.0
-1573669.0
-1573701.0
-1573623.0
-1574305.0
-1574567.0
-1574165.0
-1575667.0
-1575465.0
-1575465.0
-1576441.0
-1576797.0
-1577139.0
-1577789.0
-1577897.0
-1578299.0
-1579197.0
-1579135.0
-1580049.0
-1579817.0
-1580157.0
-1580391.0
-1581599.0
-1581645.0
-1582263.0
-1582621.0
-1583101.0
-1583859.0
-1583735.0
-1583983.0
-1584555.0
-1584633.0
-1583889.0
-1584215.0
-1584153.0
-1584075.0
-1584309.0
-1584727.0
-1584247.0
-1584277.0
-1584431.0
-1584215.0
-1584493.0
-1584803.0
-1584277.0
-1584137.0
-1584851.0
-1584711.0
-1584493.0
-1584479.0
-1584757.0
-1585469.0
-1585841.0
-1585563.0
-1585981.0
-1586073.0
-1586105.0
-1586801.0
-1586755.0
-1586817.0
-1587127.0
-1587621.0
-1587669.0
-1587621.0
-1587437.0
-1588521.0
-1588675.0
-1589247.0
-1589201.0
-1589047.0
-1589821.0
-1589557.0
-1590037.0
-1590875.0
-1590657.0
-1590797.0
-1591447.0
-1591989.0
-1592949.0
-1592809.0
-1593089.0
-1593707.0
-1593801.0
-1593925.0
-1594343.0
-1595257.0
-1595225.0
-1595721.0
-1596217.0
-1597007.0
-1597145.0
-1597455.0
-1597797.0
-1598385.0
-1599113.0
-1599499.0
-1599965.0
-1600089.0
-1600553.0
-1600939.0
-1601187.0
-1601869.0
-1602179.0
-1603031.0
-1603279.0
-1603433.0
-1603851.0
-1604053.0
-1604425.0
-1604967.0
-1604749.0
-1604857.0
-1604363.0
-1604517.0
-1604067.0
-1604471.0
-1604285.0
-1604795.0
-1604439.0
-1604471.0
-1604795.0
-1604471.0
-1604191.0
-1604951.0
-1604657.0
-1604191.0
-1604239.0
-1604595.0
-1605137.0
-1605245.0
-1605137.0
-1605477.0
-1605337.0
-1605213.0
-1605601.0
-1606051.0
-1606113.0
-1606313.0
-1606437.0
-1606839.0
-1606407.0
-1607397.0
-1606871.0
-1606793.0
-1607459.0
-1607553.0
-1608095.0
-1608327.0
-1608141.0
-1608141.0
-1608497.0
-1608993.0
-1609303.0
-1609271.0
-1609473.0
-1609907.0
-1610619.0
-1610897.0
-1610619.0
-1611037.0
-1611439.0
-1611795.0
-1612523.0
-1611951.0
-1613221.0
-1613577.0
-1613591.0
-1613933.0
-1614427.0
-1614537.0
-1615171.0
-1614815.0
-1615713.0
-1615853.0
-1615899.0
-1616953.0
-1617169.0
-1617789.0
-1617803.0
-1618253.0
-1618207.0
-1619337.0
-1619183.0
-1620019.0
-1620575.0
-1620993.0
-1621133.0
-1620979.0
-1620839.0
-1621427.0
-1621489.0
-1621459.0
-1621675.0
-1621103.0
-1621335.0
-1621289.0
-1621365.0
-1621117.0
-1621055.0
-1621273.0
-1621257.0
-1621397.0
-1621443.0
-1621211.0
-1621489.0
-1621473.0
-1621473.0
-1621583.0
-1622139.0
-1622233.0
-1622015.0
-1623069.0
-1623085.0
-1623007.0
-1623115.0
-1622729.0
-1623161.0
-1623549.0
-1623627.0
-1623797.0
-1623643.0
-1624401.0
-1624463.0
-1624369.0
-1624447.0
-1624633.0
-1625253.0
-1625469.0
-1625871.0
-1625919.0
-1625903.0
-1626569.0
-1626553.0
-1626693.0
-1627265.0
-1627327.0
-1627745.0
-1628179.0
-1628349.0
-1628923.0
-1629077.0
-1629573.0
-1629727.0
-1629913.0
-1630673.0
-1631199.0
-1631107.0
-1631711.0
-1631649.0
-1632221.0
-1632067.0
-1632965.0
-1633041.0
-1634063.0
-1633893.0
-1634483.0
-1634667.0
-1634931.0
-1635567.0
-1635937.0
-1635907.0
-1636635.0
-1637021.0
-1637239.0
-1637161.0
-1637145.0
-1637177.0
-1637177.0
-1637455.0
-1637285.0
-1637517.0
-1637131.0
-1637161.0
-1636821.0
-1637749.0
-1637611.0
-1637223.0
-1637889.0
-1637347.0
-1637827.0
-1638059.0
-1638105.0
-1638339.0
-1638059.0
-1638339.0
-1638353.0
-1638787.0
-1638493.0
-1639113.0
-1638865.0
-1638585.0
-1639499.0
-1639825.0
-1639793.0
-1639933.0
-1639221.0
-1639577.0
-1640273.0
-1640149.0
-1640335.0
-1640769.0
-1641295.0
-1640491.0
-1640785.0
-1640677.0
-1641111.0
-1641543.0
-1641699.0
-1641869.0
-1641729.0
-1642225.0
-1642829.0
-1642829.0
-1642797.0
-1643247.0
-1643201.0
-1642907.0
-1643913.0
-1643525.0
-1644547.0
-1644363.0
-1645229.0
-1645105.0
-1645817.0
-1645817.0
-1646421.0
-1646499.0
-1646639.0
-1646825.0
-1647553.0
-1647289.0
-1647753.0
-1648451.0
-1648203.0
-1648683.0
-1649007.0
-1649767.0
-1649751.0
-1650029.0
-1649797.0
-1649905.0
-1649875.0
-1649411.0
-1649829.0
-1649503.0
-1649581.0
-1649689.0
-1649163.0
-1648821.0
-1648699.0
-1648807.0
-1648513.0
-1649241.0
-1648745.0
-1648403.0
-1648095.0
-1647985.0
-1648311.0
-1647753.0
-1647971.0
-1647815.0
-1647599.0
-1647831.0
-1648341.0
-1647583.0
-1647397.0
-1647909.0
-1648157.0
-1647799.0
-1648001.0
-1647971.0
-1647521.0
-1647691.0
-1647831.0
-1647861.0
-1648527.0
-1647413.0
-1647909.0
-1647971.0
-1647661.0
-1648403.0
-1648357.0
-1647847.0
-1648807.0
-1648481.0
-1648373.0
-1648621.0
-1648219.0
-1649007.0
-1649163.0
-1649131.0
-1650107.0
-1648791.0
-1649813.0
-1650077.0
-1649891.0
-1650495.0
-1650247.0
-1650509.0
-1650509.0
-1651299.0
-1650989.0
-1651423.0
-1651299.0
-1651841.0
-1652089.0
-1652197.0
-1652755.0
-1652555.0
-1652539.0
-1652647.0
-1652925.0
-1653669.0
-1653855.0
-1653979.0
-1653947.0
-1653499.0
-1653947.0
-1653267.0
-1653343.0
-1652725.0
-1652631.0
-1652555.0
-1652121.0
-1651455.0
-1651409.0
-1651269.0
-1651161.0
-1651315.0
-1650247.0
-1650107.0
-1650169.0
-1649751.0
-1649303.0
-1649875.0
-1649147.0
-1649179.0
-1648993.0
-1648883.0
-1649055.0
-1648125.0
-1648745.0
-1648079.0
-1647537.0
-1648063.0
-1647971.0
-1648001.0
-1647815.0
-1647553.0
-1647227.0
-1647521.0
-1647769.0
-1647443.0
-1646777.0
-1647815.0
-1647149.0
-1647165.0
-1647041.0
-1647381.0
-1647149.0
-1647381.0
-1647537.0
-1647847.0
-1647335.0
-1647553.0
-1647831.0
-1647583.0
-1647753.0
-1648219.0
-1648157.0
-1647753.0
-1647939.0
-1648465.0
-1648419.0
-1648651.0
-1648821.0
-1648961.0
-1649581.0
-1649241.0
-1649735.0
-1649131.0
-1649783.0
-1649689.0
-1649937.0
-1650525.0
-1651099.0
-1650247.0
-1651191.0
-1651051.0
-1651827.0
-1651237.0
-1650633.0
-1651223.0
-1650649.0
-1650757.0
-1650447.0
-1649783.0
-1649611.0
-1648883.0
-1648481.0
-1648543.0
-1647815.0
-1647971.0
-1647181.0
-1646407.0
-1646855.0
-1646205.0
-1646143.0
-1645399.0
-1645013.0
-1644687.0
-1645261.0
-1645089.0
-1644455.0
-1644377.0
-1644037.0
-1643881.0
-1644347.0
-1643263.0
-1643897.0
-1643217.0
-1642937.0
-1643107.0
-1642317.0
-1641977.0
-1642333.0
-1641775.0
-1642195.0
-1641961.0
-1641899.0
-1641729.0
-1642009.0
-1641529.0
-1641575.0
-1641049.0
-1641311.0
-1641683.0
-1641745.0
-1640847.0
-1641001.0
-1641171.0
-1641761.0
-1641343.0
-1641529.0
-1641869.0
-1641729.0
-1642023.0
-1641823.0
-1641467.0
-1642195.0
-1641591.0
-1641885.0
-1642117.0
-1641993.0
-1642287.0
-1642317.0
-1642829.0
-1642225.0
-1642613.0
-1642551.0
-1643185.0
-1643309.0
-1643169.0
-1643107.0
-1642907.0
-1642457.0
-1642039.0
-1641761.0
-1641559.0
-1640677.0
-1640227.0
-1639701.0
-1639221.0
-1638865.0
-1638291.0
-1637563.0
-1637131.0
-1637425.0
-1636743.0
-1636465.0
-1635567.0
-1635473.0
-1635163.0
-1635071.0
-1633553.0
-1634157.0
-1633769.0
-1633583.0
-1633337.0
-1633289.0
-1633089.0
-1632639.0
-1632267.0
-1632423.0
-1632407.0
-1631169.0
-1631261.0
-1631153.0
-1630921.0
-1630735.0
-1630797.0
-1630503.0
-1630363.0
-1629743.0
-1630379.0
-1629975.0
-1630363.0
-1629883.0
-1629961.0
-1629945.0
-1630549.0
-1629899.0
-1629945.0
-1629805.0
-1630069.0
-1629543.0
-1630115.0
-1630069.0
-1630037.0
-1629805.0
-1630085.0
-1630131.0
-1630487.0
-1630177.0
-1630069.0
-1630455.0
-1630765.0
-1630269.0
-1631013.0
-1630951.0
-1630441.0
-1631803.0
-1631525.0
-1631431.0
-1631121.0
-1631601.0
-1631447.0
-1631525.0
-1630951.0
-1630301.0
-1630007.0
-1629945.0
-1628753.0
-1628473.0
-1628319.0
-1627869.0
-1627359.0
-1626507.0
-1626151.0
-1625283.0
-1624587.0
-1624509.0
-1624695.0
-1623921.0
-1623347.0
-1622589.0
-1623101.0
-1622559.0
-1621985.0
-1621489.0
-1621227.0
-1621721.0
-1620855.0
-1620483.0
-1620839.0
-1620189.0
-1619925.0
-1619631.0
-1620235.0
-1619553.0
-1619631.0
-1618625.0
-1618825.0
-1618687.0
-1618779.0
-1618531.0
-1617927.0
-1617865.0
-1618299.0
-1617633.0
-1618037.0
-1617881.0
-1618113.0
-1618283.0
-1617679.0
-1617711.0
-1617851.0
-1617835.0
-1617495.0
-1618083.0
-1617479.0
-1617835.0
-1617773.0
-1618083.0
-1617851.0
-1617835.0
-1618161.0
-1618625.0
-1618345.0
-1618377.0
-1619121.0
-1619151.0
-1619321.0
-1619305.0
-1619817.0
-1620019.0
-1619847.0
-1619663.0
-1619971.0
-1620205.0
-1619833.0
-1619817.0
-1619739.0
-1619569.0
-1619787.0
-1618965.0
-1619631.0
-1618423.0
-1618361.0
-1617619.0
-1617571.0
-1617323.0
-1616411.0
-1616225.0
-1615899.0
-1615295.0
-1614613.0
-1615079.0
-1614381.0
-1614195.0
-1613561.0
-1613623.0
-1613019.0
-1613205.0
-1612755.0
-1612787.0
-1613127.0
-1612709.0
-1612167.0
-1612555.0
-1611733.0
-1611641.0
-1612399.0
-1611951.0
-1611331.0
-1611237.0
-1611625.0
-1611099.0
-1611595.0
-1611223.0
-1611083.0
-1611269.0
-1611393.0
-1610929.0
-1611533.0
-1610743.0
-1610557.0
-1611315.0
-1611113.0
-1611671.0
-1610975.0
-1611207.0
-1611501.0
-1611625.0
-1611207.0
-1611655.0
-1611981.0
-1612013.0
-1612229.0
-1612167.0
-1612369.0
-1612725.0
-1612895.0
-1613035.0
-1613035.0
-1613281.0
-1613701.0
-1613515.0
-1614629.0
-1614273.0
-1614737.0
-1615079.0
-1614923.0
-1615031.0
-1615977.0
-1615745.0
-1615697.0
-1616069.0
-1615217.0
-1615945.0
-1615527.0
-1615203.0
-1614769.0
-1613747.0
-1614181.0
-1613901.0
-1613159.0
-1612987.0
-1612631.0
-1612539.0
-1612027.0
-1612445.0
-1611765.0
-1611471.0
-1611595.0
-1611269.0
-1611517.0
-1610587.0
-1610587.0
-1610587.0
-1611021.0
-1610107.0
-1610727.0
-1610525.0
-1610215.0
-1610417.0
-1610387.0
-1610139.0
-1610495.0
-1610263.0
-1610123.0
-1610433.0
-1610665.0
-1610449.0
-1610417.0
-1610433.0
-1609735.0
-1610619.0
-1610247.0
-1610339.0
-1610463.0
-1610665.0
-1610727.0
-1610789.0
-1611749.0
-1611099.0
-1611471.0
-1611455.0
-1611579.0
-1611981.0
-1611965.0
-1612105.0
-1612369.0
-1612755.0
-1613467.0
-1613049.0
-1613453.0
-1613917.0
-1613715.0
-1613623.0
-1614071.0
-1614243.0
-1614521.0
-1614923.0
-1615171.0
-1615435.0
-1615605.0
-1615945.0
-1616287.0
-1616301.0
-1616053.0
-1616287.0
-1615745.0
-1615977.0
-1616053.0
-1615993.0
-1615651.0
-1614691.0
-1614939.0
-1613933.0
-1613839.0
-1613607.0
-1613267.0
-1612663.0
-1612679.0
-1612679.0
-1612461.0
-1612259.0
-1612307.0
-1611547.0
-1611671.0
-1612075.0
-1611733.0
-1610695.0
-1610557.0
-1610463.0
-1610943.0
-1610603.0
-1610339.0
-1610201.0
-1610463.0
-1610185.0
-1609813.0
-1610247.0
-1610603.0
-1610107.0
-1609953.0
-1609813.0
-1609705.0
-1609969.0
-1610061.0
-1610153.0
-1609659.0
-1609983.0
-1609829.0
-1609611.0
-1609845.0
-1609427.0
-1609673.0
-1609303.0
-1609519.0
-1609797.0
-1609349.0
-1609829.0
-1609689.0
-1609813.0
-1609783.0
-1610123.0
-1609983.0
-1610215.0
-1610387.0
-1610231.0
-1610633.0
-1610263.0
-1610123.0
-1610231.0
-1610727.0
-1610665.0
-1610339.0
-1610959.0
-1610805.0
-1611439.0
-1611207.0
-1611021.0
-1611223.0
-1610867.0
-1610943.0
-1610603.0
-1610603.0
-1609673.0
-1609565.0
-1608729.0
-1608589.0
-1608157.0
-1606963.0
-1607351.0
-1607087.0
-1606701.0
-1606283.0
-1605911.0
-1605323.0
-1605029.0
-1604347.0
-1604021.0
-1603495.0
-1603789.0
-1603525.0
-1603015.0
-1603217.0
-1602349.0
-1602411.0
-1602519.0
-1602411.0
-1601451.0
-1601621.0
-1601203.0
-1601235.0
-1600723.0
-1600259.0
-1600831.0
-1600351.0
-1600027.0
-1600181.0
-1600321.0
-1599485.0
-1599175.0
-1599655.0
-1599345.0
-1599189.0
-1599779.0
-1599655.0
-1599437.0
-1599175.0
-1599035.0
-1598525.0
-1599081.0
-1599825.0
-1598957.0
-1598865.0
-1599205.0
-1599329.0
-1600103.0
-1599531.0
-1599623.0
-1599561.0
-1599809.0
-1600289.0
-1600569.0
-1600693.0
-1601141.0
-1601079.0
-1601343.0
-1601605.0
-1601653.0
-1601745.0
-1601977.0
-1602023.0
-1601807.0
-1601621.0
-1601389.0
-1601343.0
-1601235.0
-1600367.0
-1600243.0
-1600569.0
-1600289.0
-1599871.0
-1599917.0
-1599159.0
-1599717.0
-1599067.0
-1599081.0
-1599237.0
-1598895.0
-1599067.0
-1598943.0
-1598539.0
-1598105.0
-1598585.0
-1598183.0
-1598709.0
-1597889.0
-1598323.0
-1598385.0
-1598183.0
-1598307.0
-1598215.0
-1598183.0
-1598245.0
-1598215.0
-1598415.0
-1598741.0
-1598819.0
-1598431.0
-1598091.0
-1599329.0
-1599237.0
-1599855.0
-1599407.0
-1599345.0
-1599577.0
-1599887.0
-1599965.0
-1600661.0
-1600289.0
-1601095.0
-1600631.0
-1600677.0
-1600815.0
-1601435.0
-1601467.0
-1602009.0
-1601931.0
-1601993.0
-1602489.0
-1602643.0
-1602737.0
-1602783.0
-1602675.0
-1602675.0
-1603107.0
-1602737.0
-1603355.0
-1603417.0
-1603573.0
-1603325.0
-1602379.0
-1602271.0
-1601481.0
-1601419.0
-1600815.0
-1600243.0
-1599949.0
-1598895.0
-1598819.0
-1598431.0
-1597269.0
-1597487.0
-1596759.0
-1596093.0
-1595891.0
-1594963.0
-1594327.0
-1593971.0
-1593429.0
-1593011.0
-1592345.0
-1592097.0
-1591633.0
-1590859.0
-1590627.0
-1590255.0
-1589851.0
-1589047.0
-1588737.0
-1588459.0
-1588163.0
-1587855.0
-1587917.0
-1587297.0
-1586337.0
-1586615.0
-1586305.0
-1586213.0
-1586445.0
-1585453.0
-1585625.0
-1585021.0
-1585083.0
-1584851.0
-1584819.0
-1584911.0
-1584463.0
-1584603.0
-1584851.0
-1584199.0
-1583875.0
-1584075.0
-1584091.0
-1584773.0
-1583767.0
-1584061.0
-1584665.0
-1584603.0
-1584911.0
-1584973.0
-1585083.0
-1585639.0
-1585423.0
-1585701.0
-1586105.0
-1586477.0
-1586259.0
-1586383.0
-1586909.0
-1586243.0
-1585995.0
-1586275.0
-1586057.0
-1584911.0
-1584679.0
-1585221.0
-1584355.0
-1584649.0
-1583333.0
-1583209.0
-1583163.0
-1582775.0
-1582341.0
-1582201.0
-1582031.0
-1581815.0
-1581365.0
-1581613.0
-1581257.0
-1581365.0
-1581613.0
-1581645.0
-1581815.0
-1581629.0
-1581413.0
-1581195.0
-1581179.0
-1581691.0
-1581831.0
-1581985.0
-1581599.0
-1582079.0
-1581427.0
-1581675.0
-1582187.0
-1582171.0
-1581707.0
-1582233.0
-1582465.0
-1582651.0
-1581969.0
-1582079.0
-1582991.0
-1582883.0
-1582017.0
-1582109.0
-1582527.0
-1582713.0
-1582929.0
-1583827.0
-1583487.0
-1583827.0
-1584107.0
-1584417.0
-1585191.0
-1584943.0
-1585253.0
-1585593.0
-1585625.0
-1586089.0
-1586537.0
-1586971.0
-1586801.0
-1587297.0
-1586785.0
-1587327.0
-1586461.0
-1586151.0
-1586801.0
-1586507.0
-1586027.0
-1586213.0
-1585965.0
-1585949.0
-1584881.0
-1584665.0
-1584525.0
-1584541.0
-1584045.0
-1584617.0
-1583905.0
-1583611.0
-1583689.0
-1583797.0
-1583193.0
-1584153.0
-1583643.0
-1583503.0
-1583827.0
-1584107.0
-1584231.0
-1584493.0
-1584277.0
-1583719.0
-1584463.0
-1584247.0
-1584385.0
-1584897.0
-1584417.0
-1584479.0
-1584851.0
-1585067.0
-1585035.0
-1585237.0
-1585207.0
-1585625.0
-1585935.0
-1586275.0
-1586383.0
-1586941.0
-1586987.0
-1587003.0
-1586739.0
-1587219.0
-1587869.0
-1587575.0
-1588287.0
-1588877.0
-1588443.0
-1589155.0
-1589233.0
-1589419.0
-1589929.0
-1590285.0
-1590813.0
-1591029.0
-1591649.0
-1591911.0
-1592205.0
-1592391.0
-1593027.0
-1592763.0
-1592593.0
-1592407.0
-1591741.0
-1592485.0
-1592113.0
-1592299.0
-1591431.0
-1591555.0
-1590719.0
-1591199.0
-1590549.0
-1590579.0
-1590611.0
-1590765.0
-1589975.0
-1589991.0
-1590503.0
-1590131.0
-1589743.0
-1590533.0
-1590053.0
-1590131.0
-1590147.0
-1590317.0
-1590379.0
-1590177.0
-1590611.0
-1590487.0
-1591107.0
-1590673.0
-1590875.0
-1591013.0
-1591307.0
-1591401.0
-1591183.0
-1591369.0
-1591927.0
-1591617.0
-1591849.0
-1591695.0
-1591835.0
-1592299.0
-1592469.0
-1592887.0
-1592995.0
-1593693.0
-1593631.0
-1593693.0
-1594497.0
-1594141.0
-1594853.0
-1594823.0
-1595365.0
-1595395.0
-1596093.0
-1596061.0
-1596387.0
-1596449.0
-1596495.0
-1597827.0
-1597563.0
-1597889.0
-1598415.0
-1598353.0
-1598571.0
-1598927.0
-1598803.0
-1598601.0
-1598059.0
-1598679.0
-1597873.0
-1597563.0
-1598121.0
-1597673.0
-1597207.0
-1597099.0
-1596991.0
-1596991.0
-1596959.0
-1596295.0
-1596279.0
-1596355.0
-1595691.0
-1595923.0
-1595953.0
-1596417.0
-1596479.0
-1596325.0
-1596233.0
-1595643.0
-1596233.0
-1596743.0
-1596341.0
-1596541.0
-1596171.0
-1596511.0
-1596217.0
-1596727.0
-1596527.0
-1596511.0
-1596805.0
-1597239.0
-1596945.0
-1597317.0
-1596945.0
-1597673.0
-1597501.0
-1597981.0
-1597735.0
-1597859.0
-1598463.0
-1598833.0
-1598477.0
-1598771.0
-1599019.0
-1599113.0
-1599561.0
-1599701.0
-1600057.0
-1600351.0
-1600615.0
-1600537.0
-1600925.0
-1601513.0
-1601869.0
-1601513.0
-1602365.0
-1602133.0
-1602379.0
-1603093.0
-1602737.0
-1603325.0
-1603773.0
-1604269.0
-1604409.0
-1603681.0
-1604037.0
-1603279.0
-1603107.0
-1603325.0
-1602799.0
-1602875.0
-1602333.0
-1602225.0
-1601807.0
-1601451.0
-1601745.0
-1601513.0
-1601389.0
-1601187.0
-1600877.0
-1600925.0
-1601095.0
-1600631.0
-1601327.0
-1600909.0
-1601187.0
-1600367.0
-1600925.0
-1600831.0
-1600863.0
-1601343.0
-1600645.0
-1601095.0
-1601001.0
-1600815.0
-1601017.0
-1601265.0
-1601033.0
-1601853.0
-1601791.0
-1601017.0
-1602117.0
-1602179.0
-1601715.0
-1601977.0
-1602085.0
-1601837.0
-1601899.0
-1602101.0
-1602365.0
-1602613.0
-1603231.0
-1602875.0
-1602875.0
-1603463.0
-1603573.0
-1603759.0
-1604177.0
-1604161.0
-1604811.0
-1604781.0
-1604857.0
-1604889.0
-1605089.0
-1605323.0
-1605833.0
-1606251.0
-1606545.0
-1607259.0
-1607135.0
-1607165.0
-1607367.0
-1608063.0
-1608187.0
-1608001.0
-1607475.0
-1607119.0
-1607149.0
-1606763.0
-1606545.0
-1606871.0
-1606793.0
-1606593.0
-1606221.0
-1605539.0
-1605477.0
-1604997.0
-1605151.0
-1605183.0
-1605245.0
-1604425.0
-1604439.0
-1604857.0
-1604425.0
-1604099.0
-1604067.0
-1604253.0
-1604517.0
-1604533.0
-1604301.0
-1604455.0
-1604161.0
-1604191.0
-1603619.0
-1604099.0
-1603897.0
-1604145.0
-1603433.0
-1603573.0
-1603525.0
-1604425.0
-1603587.0
-1604083.0
-1603851.0
-1604331.0
-1604083.0
-1604563.0
-1604873.0
-1604919.0
-1604455.0
-1604425.0
-1605137.0
-1605013.0
-1605275.0
-1605817.0
-1605415.0
-1605973.0
-1606035.0
-1606437.0
-1606267.0
-1606545.0
-1606777.0
-1607537.0
-1607259.0
-1607011.0
-1607413.0
-1607583.0
-1608203.0
-1608745.0
-1608219.0
-1608945.0
-1609055.0
-1609117.0
-1608915.0
-1609333.0
-1609241.0
-1609365.0
-1609225.0
-1608465.0
-1608637.0
-1609039.0
-1608683.0
-1607739.0
-1607615.0
-1607335.0
-1607149.0
-1607011.0
-1606391.0
-1606607.0
-1606175.0
-1606051.0
-1605941.0
-1606019.0
-1605709.0
-1605291.0
-1605911.0
-1604843.0
-1605431.0
-1604889.0
-1605353.0
-1605013.0
-1604501.0
-1605183.0
-1604781.0
-1604223.0
-1604687.0
-1604811.0
-1604595.0
-1604595.0
-1604145.0
-1604177.0
-1604919.0
-1604719.0
-1604439.0
-1603959.0
-1604191.0
-1604253.0
-1605121.0
-1604967.0
-1604781.0
-1605137.0
-1604997.0
-1605137.0
-1605121.0
-1605601.0
-1605323.0
-1606143.0
-1605895.0
-1606051.0
-1606593.0
-1606917.0
-1606545.0
-1606717.0
-1607041.0
-1606979.0
-1607149.0
-1608063.0
-1607877.0
-1608667.0
-1608357.0
-1609549.0
-1609349.0
-1609333.0
-1609581.0
-1610077.0
-1610153.0
-1610169.0
-1610649.0
-1610571.0
-1609969.0
-1610215.0
-1610201.0
-1610325.0
-1610247.0
-1610029.0
-1609333.0
-1609287.0
-1609549.0
-1609581.0
-1608775.0
-1609303.0
-1609007.0
-1609597.0
-1608853.0
-1608977.0
-1609365.0
-1608915.0
-1608745.0
-1609101.0
-1609163.0
-1609039.0
-1609007.0
-1609163.0
-1608993.0
-1609055.0
-1608869.0
-1608465.0
-1609303.0
-1608961.0
-1608837.0
-1609597.0
-1609117.0
-1608807.0
-1609271.0
-1609535.0
-1609983.0
-1609457.0
-1609907.0
-1610231.0
-1609969.0
-1610247.0
-1610123.0
-1610805.0
-1610695.0
-1610743.0
-1611145.0
-1610881.0
-1611795.0
-1611717.0
-1611609.0
-1611795.0
-1612631.0
-1613065.0
-1612973.0
-1613437.0
-1613391.0
-1613405.0
-1614133.0
-1614505.0
-1614939.0
-1614799.0
-1615079.0
-1615807.0
-1616131.0
-1615759.0
-1616225.0
-1616379.0
-1616767.0
-1616101.0
-1616255.0
-1616411.0
-1616565.0
-1616411.0
-1615621.0
-1616301.0
-1615481.0
-1615977.0
-1615837.0
-1615233.0
-1615481.0
-1615977.0
-1616101.0
-1615837.0
-1616425.0
-1615883.0
-1616101.0
-1615573.0
-1616007.0
-1616999.0
-1616487.0
-1616457.0
-1616457.0
-1616891.0
-1617293.0
-1616967.0
-1617323.0
-1617463.0
-1617231.0
-1617571.0
-1618099.0
-1618145.0
-1618145.0
-1618687.0
-1618407.0
-1618703.0
-1618825.0
-1618749.0
-1619135.0
-1619151.0
-1618641.0
-1619771.0
-1620033.0
-1620049.0
-1620359.0
-1620095.0
-1620575.0
-1620917.0
-1621087.0
-1621211.0
-1621893.0
-1621939.0
-1622311.0
-1622187.0
-1622279.0
-1622511.0
-1623271.0
-1623549.0
-1623533.0
-1623813.0
-1624431.0
-1624369.0
-1625361.0
-1624943.0
-1625857.0
-1625377.0
-1625749.0
-1625981.0
-1625377.0
-1625051.0
-1625439.0
-1625609.0
-1625021.0
-1624431.0
-1624587.0
-1624493.0
-1624369.0
-1624463.0
-1624447.0
-1623317.0
-1623689.0
-1623627.0
-1623549.0
-1623735.0
-1623735.0
-1623487.0
-1623657.0
-1623161.0
-1623719.0
-1623735.0
-1623255.0
-1623457.0
-1623441.0
-1623673.0
-1623271.0
-1623115.0
-1623347.0
-1624091.0
-1623239.0
-1623533.0
-1623719.0
-1623271.0
-1623115.0
-1623813.0
-1623859.0
-1624107.0
-1623487.0
-1623533.0
-1624169.0
-1624107.0
-1624431.0
-1624525.0
-1624401.0
-1624369.0
-1624649.0
-1624897.0
-1625283.0
-1625515.0
-1625361.0
-1625857.0
-1625655.0
-1626119.0
-1625841.0
-1626291.0
-1626291.0
-1626955.0
-1626259.0
-1626723.0
-1626895.0
-1627513.0
-1627777.0
-1627313.0
-1628071.0
-1627993.0
-1627947.0
-1627607.0
-1627777.0
-1628009.0
-1627621.0
-1627219.0
-1627173.0
-1626661.0
-1626879.0
-1626599.0
-1626353.0
-1625933.0
-1625407.0
-1625733.0
-1625159.0
-1625207.0
-1625671.0
-1625191.0
-1625129.0
-1624555.0
-1624525.0
-1624417.0
-1623905.0
-1624137.0
-1624479.0
-1624679.0
-1624417.0
-1624215.0
-1623781.0
-1624045.0
-1623999.0
-1624231.0
-1623875.0
-1623951.0
-1624045.0
-1623007.0
-1624199.0
-1623735.0
-1624185.0
-1623533.0
-1624013.0
-1623595.0
-1624091.0
-1624293.0
-1623983.0
-1624261.0
-1624185.0
-1624509.0
-1624323.0
-1624943.0
-1625021.0
-1624819.0
-1625113.0
-1624959.0
-1624757.0
-1625097.0
-1625329.0
-1625269.0
-1625377.0
-1625825.0
-1626275.0
-1626461.0
-1626305.0
-1626337.0
-1627095.0
-1626569.0
-1627095.0
-1627049.0
-1627467.0
-1627219.0
-1627637.0
-1627513.0
-1627017.0
-1627127.0
-1625749.0
-1625733.0
-1625655.0
-1625949.0
-1625345.0
-1624911.0
-1624927.0
-1624215.0
-1624169.0
-1623611.0
-1623967.0
-1623053.0
-1622681.0
-1622899.0
-1622961.0
-1622961.0
-1622681.0
-1622527.0
-1622139.0
-1621831.0
-1621691.0
-1621645.0
-1621489.0
-1621257.0
-1620747.0
-1621769.0
-1620885.0
-1620637.0
-1620591.0
-1620669.0
-1620437.0
-1620685.0
-1620111.0
-1620963.0
-1620095.0
-1619863.0
-1620499.0
-1619895.0
-1619615.0
-1620049.0
-1620065.0
-1620081.0
-1620251.0
-1620019.0
-1620219.0
-1619847.0
-1619847.0
-1619337.0
-1620111.0
-1620437.0
-1620127.0
-1620329.0
-1620251.0
-1620205.0
-1620483.0
-1621025.0
-1621133.0
-1620917.0
-1620777.0
-1621211.0
-1621241.0
-1621707.0
-1621583.0
-1621691.0
-1621769.0
-1621659.0
-1622295.0
-1622373.0
-1621939.0
-1621629.0
-1622063.0
-1621133.0
-1620809.0
-1620375.0
-1620267.0
-1619879.0
-1619491.0
-1619337.0
-1618269.0
-1618501.0
-1618161.0
-1617789.0
-1617247.0
-1617401.0
-1617153.0
-1616627.0
-1616937.0
-1616719.0
-1616349.0
-1615915.0
-1616411.0
-1615837.0
-1615899.0
-1615141.0
-1615651.0
-1616147.0
-1615295.0
-1615605.0
-1615171.0
-1615249.0
-1615341.0
-1615093.0
-1614691.0
-1615265.0
-1614847.0
-1615187.0
-1614815.0
-1614969.0
-1615279.0
-1614877.0
-1614877.0
-1615203.0
-1615465.0
-1615265.0
-1615807.0
-1615791.0
-1615141.0
-1616287.0
-1616131.0
-1616705.0
-1616255.0
-1616487.0
-1616379.0
-1616967.0
-1617339.0
-1617587.0
-1617835.0
-1618005.0
-1618207.0
-1618485.0
-1618763.0
-1618563.0
-1619105.0
-1619073.0
-1619305.0
-1619787.0
-1619863.0
-1620081.0
-1620157.0
-1619539.0
-1619291.0
-1619553.0
-1618811.0
-1618455.0
-1617541.0
-1617447.0
-1617649.0
-1616333.0
-1616581.0
-1615915.0
-1615341.0
-1614753.0
-1615001.0
-1614133.0
-1614707.0
-1614181.0
-1613885.0
-1614427.0
-1613127.0
-1612987.0
-1612879.0
-1613375.0
-1612369.0
-1612787.0
-1611981.0
-1611285.0
-1612121.0
-1611903.0
-1611795.0
-1611053.0
-1610681.0
-1610943.0
-1610867.0
-1610525.0
-1610943.0
-1610433.0
-1610045.0
-1610045.0
-1610061.0
-1609829.0
-1609457.0
-1609751.0
-1609767.0
-1610387.0
-1609999.0
-1609705.0
-1609969.0
-1609813.0
-1610231.0
-1609627.0
-1609689.0
-1610185.0
-1609705.0
-1610247.0
-1609705.0
-1610277.0
-1609735.0
-1609721.0
-1609783.0
-1609705.0
-1610231.0
-1609565.0
-1609767.0
-1609767.0
-1610277.0
-1610153.0
-1609611.0
-1609953.0
-1609101.0
-1609147.0
-1608575.0
-1608095.0
-1607599.0
-1607629.0
-1607305.0
-1606855.0
-1606113.0
-1606065.0
-1605709.0
-1605555.0
-1605261.0
-1604997.0
-1604671.0
-1604347.0
-1604083.0
-1603619.0
-1603355.0
-1603463.0
-1603681.0
-1602581.0
-1602721.0
-1602799.0
-1602241.0
-1602395.0
-1602457.0
-1602179.0
-1602101.0
-1602225.0
-1601947.0
-1601467.0
-1601745.0
-1601807.0
-1602147.0
-1601791.0
-1601777.0
-1601419.0
-1601513.0
-1601497.0
-1601435.0
-1601513.0
-1602039.0
-1601529.0
-1602039.0
-1602195.0
-1601621.0
-1602489.0
-1602195.0
-1602303.0
-1601947.0
-1603031.0
-1602473.0
-1602875.0
-1602921.0
-1602953.0
-1602921.0
-1602907.0
-1603231.0
-1603587.0
-1603773.0
-1603495.0
-1603619.0
-1603587.0
-1603541.0
-1603697.0
-1602597.0
-1602705.0
-1602395.0
-1602829.0
-1601637.0
-1601249.0
-1600491.0
-1600925.0
-1600351.0
-1600227.0
-1599345.0
-1599345.0
-1598725.0
-1598463.0
-1598353.0
-1597967.0
-1597641.0
-1597719.0
-1597563.0
-1597703.0
-1597115.0
-1596991.0
-1596573.0
-1596913.0
-1597069.0
-1596713.0
-1596047.0
-1596093.0
-1596727.0
-1596589.0
-1596635.0
-1597177.0
-1596403.0
-1596929.0
-1596511.0
-1596603.0
-1597053.0
-1597331.0
-1596851.0
-1597425.0
-1597533.0
-1597487.0
-1597997.0
-1597781.0
-1598323.0
-1598339.0
-1598943.0
-1598369.0
-1598771.0
-1599081.0
-1599453.0
-1599933.0
-1599995.0
-1599855.0
-1599995.0
-1600909.0
-1600599.0
-1600847.0
-1600893.0
-1601063.0
-1601559.0
-1601265.0
-1600893.0
-1600909.0
-1600475.0
-1600367.0
-1600181.0
-1599701.0
-1599871.0
-1599097.0
-1599299.0
-1599005.0
-1598477.0
-1597843.0
-1598059.0
-1598137.0
-1597811.0
-1597487.0
-1597083.0
-1597177.0
-1597317.0
-1597409.0
-1597193.0
-1597021.0
-1597069.0
-1597439.0
-1597239.0
-1597393.0
-1597285.0
-1597193.0
-1597425.0
-1597409.0
-1597533.0
-1597749.0
-1597255.0
-1597843.0
-1597889.0
-1597611.0
-1597735.0
-1598199.0
-1598153.0
-1598695.0
-1597935.0
-1598447.0
-1598555.0
-1598463.0
-1599329.0
-1599159.0
-1599251.0
-1599375.0
-1599855.0
-1600367.0
-1600273.0
-1600073.0
-1600769.0
-1600569.0
-1600815.0
-1601481.0
-1601915.0
-1602023.0
-1602085.0
-1602023.0
-1601791.0
-1601559.0
-1601125.0
-1601777.0
-1600987.0
-1600847.0
-1600693.0
-1600259.0
-1600507.0
-1599979.0
-1599143.0
-1599407.0
-1599437.0
-1599391.0
-1598927.0
-1598663.0
-1598663.0
-1597951.0
-1598477.0
-1598013.0
-1597579.0
-1598523.0
-1597595.0
-1598555.0
-1598137.0
-1597595.0
-1597533.0
-1597781.0
-1597749.0
-1597983.0
-1597765.0
-1597595.0
-1598013.0
-1597983.0
-1597735.0
-1597859.0
-1597811.0
-1598091.0
-1598277.0
-1598509.0
-1598509.0
-1598291.0
-1598447.0
-1598385.0
-1598633.0
-1599005.0
-1598881.0
-1599159.0
-1599669.0
-1599949.0
-1600429.0
-1599717.0
-1600057.0
-1600939.0
-1601249.0
-1601513.0
-1601063.0
-1601869.0
-1602241.0
-1602257.0
-1602023.0
-1602071.0
-1601451.0
-1601311.0
-1601063.0
-1600893.0
-1600815.0
-1599933.0
-1600723.0
-1600073.0
-1599345.0
-1599763.0
-1599701.0
-1598477.0
-1599113.0
-1599127.0
-1599035.0
-1598415.0
-1598059.0
-1598647.0
-1598339.0
-1598353.0
-1598339.0
-1598463.0
-1598105.0
-1598369.0
-1598431.0
-1598787.0
-1598431.0
-1598215.0
-1598215.0
-1598571.0
-1598463.0
-1598183.0
-1598059.0
-1598943.0
-1598973.0
-1598229.0
-1598091.0
-1598663.0
-1598647.0
-1598833.0
-1598477.0
-1599313.0
-1598695.0
-1598803.0
-1599329.0
-1599933.0
-1599531.0
-1599577.0
-1600073.0
-1599809.0
-1600351.0
-1600507.0
-1601063.0
-1600521.0
-1600739.0
-1600863.0
-1601141.0
-1601203.0
-1601389.0
-1601451.0
-1601281.0
-1601451.0
-1601605.0
-1600615.0
-1600491.0
-1600599.0
-1600211.0
-1600367.0
-1599485.0
-1599639.0
-1599345.0
-1598431.0
-1598291.0
-1598167.0
-1598555.0
-1597811.0
-1597811.0
-1597951.0
-1598043.0
-1598385.0
-1597981.0
-1597981.0
-1598075.0
-1597161.0
-1597703.0
-1597873.0
-1597843.0
-1597921.0
-1598183.0
-1598121.0
-1598353.0
-1597873.0
-1598525.0
-1597781.0
-1598307.0
-1598245.0
-1598695.0
-1599067.0
-1599189.0
-1599267.0
-1599329.0
-1598973.0
-1599685.0
-1599639.0
-1599701.0
-1599979.0
-1600165.0
-1600181.0
-1600739.0
-1600909.0
-1601327.0
-1601419.0
-1601885.0
-1601513.0
-1602659.0
-1602783.0
-1602751.0
-1602891.0
-1603557.0
-1604191.0
-1604315.0
-1604207.0
-1604269.0
-1603929.0
-1604439.0
-1604781.0
-1604609.0
-1604191.0
-1603867.0
-1603479.0
-1604191.0
-1603635.0
-1603945.0
-1603821.0
-1603279.0
-1603897.0
-1604053.0
-1603541.0
-1603217.0
-1603573.0
-1603821.0
-1603897.0
-1603711.0
-1604285.0
-1603991.0
-1603945.0
-1604223.0
-1604347.0
-1603805.0
-1604671.0
-1605151.0
-1604719.0
-1605183.0
-1605323.0
-1605617.0
-1605617.0
-1606607.0
-1606283.0
-1606329.0
-1606159.0
-1606577.0
-1606717.0
-1606839.0
-1608095.0
-1608219.0
-1608389.0
-1608791.0
-1608605.0
-1608621.0
-1608945.0
-1610015.0
-1609969.0
-1610835.0
-1610789.0
-1610681.0
-1611501.0
-1611547.0
-1612213.0
-1612555.0
-1612353.0
-1612617.0
-1613391.0
-1613623.0
-1613793.0
-1614119.0
-1614877.0
-1614227.0
-1614103.0
-1614243.0
-1614583.0
-1614753.0
-1613731.0
-1613793.0
-1614181.0
-1613639.0
-1613809.0
-1613591.0
-1613329.0
-1613235.0
-1614009.0
-1613653.0
-1613391.0
-1613545.0
-1613731.0
-1613235.0
-1613623.0
-1613731.0
-1613793.0
-1614289.0
-1614211.0
-1613685.0
-1614551.0
-1614551.0
-1614567.0
-1614521.0
-1614211.0
-1615125.0
-1615125.0
-1615093.0
-1615993.0
-1615203.0
-1616069.0
-1616039.0
-1616595.0
-1616643.0
-1616581.0
-1616657.0
-1617137.0
-1617323.0
-1617711.0
-1617261.0
-1618207.0
-1617913.0
-1618331.0
-1618253.0
-1618547.0
-1619291.0
-1619353.0
-1619429.0
-1619615.0
-1619337.0
-1620173.0
-1620157.0
-1620467.0
-1620251.0
-1621009.0
-1621567.0
-1621273.0
-1621985.0
-1622063.0
-1622403.0
-1622201.0
-1622001.0
-1622759.0
-1622171.0
-1622635.0
-1622263.0
-1622791.0
-1622403.0
-1622001.0
-1621955.0
-1621831.0
-1622187.0
-1622249.0
-1622263.0
-1621861.0
-1621969.0
-1622063.0
-1621427.0
-1621211.0
-1621877.0
-1621707.0
-1622155.0
-1621939.0
-1622155.0
-1622357.0
-1621783.0
-1622047.0
-1621535.0
-1622465.0
-1622527.0
-1623457.0
-1622573.0
-1622667.0
-1623379.0
-1623347.0
-1622573.0
-1623503.0
-1623101.0
-1623379.0
-1623379.0
-1622929.0
-1623595.0
-1623951.0
-1623765.0
-1624013.0
-1623843.0
-1624045.0
-1624307.0
-1624261.0
-1623765.0
-1624123.0
-1624711.0
-1624757.0
-1624911.0
-1625453.0
-1625361.0
-1624865.0
-1625083.0
-1625485.0
-1625919.0
-1626647.0
-1625871.0
-1626399.0
-1626971.0
-1626833.0
-1627421.0
-1627529.0
-1627575.0
-1627203.0
-1627389.0
-1627855.0
-1627621.0
-1627855.0
-1628087.0
-1627575.0
-1627343.0
-1627451.0
-1627111.0
-1627375.0
-1627141.0
-1626445.0
-1626971.0
-1626661.0
-1626275.0
-1625933.0
-1626321.0
-1626475.0
-1626275.0
-1626291.0
-1626259.0
-1626661.0
-1626089.0
-1626599.0
-1627049.0
-1626817.0
-1626569.0
-1626661.0
-1626413.0
-1626585.0
-1626631.0
-1626321.0
-1626057.0
-1626553.0
-1626305.0
-1626693.0
-1626895.0
-1626135.0
-1625811.0
-1626677.0
-1626399.0
-1625871.0
-1626461.0
-1626197.0
-1626181.0
-1626151.0
-1626167.0
-1626413.0
-1626647.0
-1626599.0
-1626785.0
-1626553.0
-1626353.0
-1627173.0
-1626709.0
-1626337.0
-1627343.0
-1627885.0
-1627235.0
-1627979.0
-1627621.0
-1628117.0
-1627963.0
-1628381.0
-1628411.0
-1628163.0
-1629201.0
-1628659.0
-1628815.0
-1628783.0
-1628521.0
-1628319.0
-1628071.0
-1627793.0
-1626941.0
-1627497.0
-1627203.0
-1627235.0
-1626709.0
-1626723.0
-1627065.0
-1626523.0
-1627173.0
-1626507.0
-1626925.0
-1626833.0
-1626647.0
-1625825.0
-1626413.0
-1626615.0
-1626569.0
-1626785.0
-1626291.0
-1626383.0
-1626475.0
-1626693.0
-1627157.0
-1627033.0
-1627033.0
-1626537.0
-1627189.0
-1626677.0
-1626413.0
-1626523.0
-1627049.0
-1626445.0
-1627003.0
-1627127.0
-1627033.0
-1626895.0
-1626507.0
-1627513.0
-1627637.0
-1627203.0
-1627065.0
-1626661.0
-1627297.0
-1627621.0
-1627251.0
-1627621.0
-1627173.0
-1627451.0
-1627297.0
-1627281.0
-1627885.0
-1628133.0
-1627699.0
-1628225.0
-1628163.0
-1627389.0
-1627545.0
-1627483.0
-1627683.0
-1626909.0
-1627437.0
-1626833.0
-1626305.0
-1626677.0
-1626119.0
-1625671.0
-1626057.0
-1626197.0
-1626197.0
-1625407.0
-1625687.0
-1624943.0
-1625531.0
-1625655.0
-1625159.0
-1625221.0
-1625593.0
-1626011.0
-1625515.0
-1625035.0
-1626073.0
-1625733.0
-1625269.0
-1626011.0
-1625655.0
-1625795.0
-1626089.0
-1626275.0
-1625965.0
-1626461.0
-1626151.0
-1625949.0
-1625871.0
-1626429.0
-1626027.0
-1626119.0
-1626553.0
-1627189.0
-1627017.0
-1627297.0
-1627235.0
-1627467.0
-1627529.0
-1628039.0
-1627621.0
-1627559.0
-1628287.0
-1628055.0
-1628907.0
-1628459.0
-1628815.0
-1629155.0
-1629309.0
-1628969.0
-1629495.0
-1629047.0
-1629371.0
-1628845.0
-1628767.0
-1628799.0
-1628737.0
-1628705.0
-1627437.0
-1627437.0
-1627157.0
-1627389.0
-1627219.0
-1626833.0
-1626291.0
-1626523.0
-1626785.0
-1625903.0
-1626429.0
-1626213.0
-1625871.0
-1625887.0
-1625407.0
-1625795.0
-1625175.0
-1625501.0
-1626259.0
-1626089.0
-1625871.0
-1625825.0
-1625329.0
-1625563.0
-1625361.0
-1625609.0
-1625221.0
-1625887.0
-1625253.0
-1625485.0
-1625113.0
-1625377.0
-1625299.0
-1625763.0
-1625361.0
-1625485.0
-1626119.0
-1626057.0
-1625237.0
-1626011.0
-1625779.0
-1625965.0
-1626151.0
-1625933.0
-1625919.0
-1626847.0
-1626291.0
-1626321.0
-1626615.0
-1627219.0
-1626925.0
-1627203.0
-1627297.0
-1627203.0
-1627189.0
-1627251.0
-1626739.0
-1627343.0
-1626167.0
-1626291.0
-1626585.0
-1626213.0
-1625671.0
-1625407.0
-1624819.0
-1624571.0
-1624091.0
-1624029.0
-1623967.0
-1624215.0
-1623085.0
-1623131.0
-1623813.0
-1623053.0
-1622667.0
-1622605.0
-1623285.0
-1622697.0
-1622435.0
-1623255.0
-1622373.0
-1622263.0
-1622139.0
-1622605.0
-1621969.0
-1622125.0
-1622171.0
-1622263.0
-1622325.0
-1622187.0
-1621985.0
-1621273.0
-1621459.0
-1621133.0
-1622063.0
-1622031.0
-1621799.0
-1621567.0
-1622357.0
-1621721.0
-1622187.0
-1622357.0
-1622511.0
-1622729.0
-1622497.0
-1622837.0
-1622605.0
-1622697.0
-1623101.0
-1622805.0
-1623131.0
-1623519.0
-1623611.0
-1624479.0
-1624633.0
-1623643.0
-1623843.0
-1624013.0
-1624695.0
-1625207.0
-1624679.0
-1625051.0
-1624727.0
-1624819.0
-1624431.0
-1624107.0
-1624447.0
-1624293.0
-1623967.0
-1623797.0
-1624029.0
-1623889.0
-1624169.0
-1623889.0
-1623363.0
-1623999.0
-1624061.0
-1623967.0
-1624107.0
-1624123.0
-1623889.0
-1624199.0
-1624385.0
-1625005.0
-1624633.0
-1624741.0
-1625097.0
-1625469.0
-1625315.0
-1625701.0
-1625035.0
-1625531.0
-1625701.0
-1625299.0
-1625639.0
-1625825.0
-1626291.0
-1625811.0
-1626213.0
-1626353.0
-1626801.0
-1627219.0
-1627405.0
-1627437.0
-1627901.0
-1628705.0
-1628179.0
-1628659.0
-1629001.0
-1629309.0
-1629899.0
-1630347.0
-1630069.0
-1630889.0
-1631293.0
-1630641.0
-1632081.0
-1632067.0
-1632639.0
-1632469.0
-1633181.0
-1633289.0
-1633909.0
-1634111.0
-1634885.0
-1634667.0
-1634187.0
-1634853.0
-1635287.0
-1635891.0
-1636031.0
-1635985.0
-1636015.0
-1636897.0
-1636171.0
-1636867.0
-1636651.0
-1637377.0
-1637255.0
-1637781.0
-1638091.0
-1638415.0
-1638121.0
-1639143.0
-1639639.0
-1639205.0
-1640321.0
-1640429.0
-1640877.0
-1641125.0
-1641513.0
-1642255.0
-1642705.0
-1642379.0
-1643185.0
-1643371.0
-1643929.0
-1644083.0
-1644191.0
-1644889.0
-1645167.0
-1645617.0
-1645957.0
-1646545.0
-1646483.0
-1646871.0
-1647815.0
-1647831.0
-1648109.0
-1649085.0
-1649209.0
-1649967.0
-1649845.0
-1650215.0
-1651067.0
-1651655.0
-1651795.0
-1652569.0
-1653049.0
-1653097.0
-1653297.0
-1654645.0
-1655017.0
-1655265.0
-1656039.0
-1656829.0
-1656905.0
-1656781.0
-1657555.0
-1657649.0
-1658625.0
-1659181.0
-1659863.0
-1660235.0
-1660963.0
-1660963.0
-1661381.0
-1661861.0
-1662233.0
-1662929.0
-1662929.0
-1663827.0
-1663457.0
-1663843.0
-1664757.0
-1664617.0
-1665453.0
-1665639.0
-1666167.0
-1666971.0
-1666275.0
-1667839.0
-1668427.0
-1668381.0
-1669185.0
-1669387.0
-1669433.0
-1669603.0
-1670951.0
-1671477.0
-1671261.0
-1672655.0
-1672469.0
-1672577.0
-1672855.0
-1673879.0
-1674063.0
-1674885.0
-1675395.0
-1675891.0
-1676123.0
-1676155.0
-1677363.0
-1677595.0
-1678029.0
-1678741.0
-1679081.0
-1679855.0
-1680025.0
-1680987.0
-1680801.0
-1681203.0
-1681915.0
-1682659.0
-1683293.0
-1683185.0
-1684099.0
-1683913.0
-1685075.0
-1685523.0
-1686267.0
-1686313.0
-1686701.0
-1686669.0
-1687567.0
-1687971.0
-1688513.0
-1688667.0
-1688993.0
-1689101.0
-1689549.0
-1690619.0
-1690603.0
-1690975.0
-1690711.0
-1691099.0
-1691423.0
-1692213.0
-1692399.0
-1692677.0
-1692833.0
-1692987.0
-1693529.0
-1693235.0
-1693855.0
-1694041.0
-1693947.0
-1694893.0
-1694505.0
-1695559.0
-1695559.0
-1696333.0
-1696735.0
-1696317.0
-1697029.0
-1697185.0
-1697107.0
-1697215.0
-1697525.0
-1698021.0
-1697711.0
-1698655.0
-1698887.0
-1698687.0
-1699785.0
-1699693.0
-1700049.0
-1700405.0
-1700343.0
-1700699.0
-1700483.0
-1701225.0
-1701349.0
-1700963.0
-1701273.0
-1701365.0
-1701427.0
-1701891.0
-1702495.0
-1702883.0
-1702589.0
-1703037.0
-1703161.0
-1703069.0
-1703517.0
-1703409.0
-1703781.0
-1704215.0
-1703797.0
-1704663.0
-1704369.0
-1705081.0
-1705377.0
-1705035.0
-1705283.0
-1705453.0
-1705701.0
-1705949.0
-1706413.0
-1706817.0
-1706569.0
-1706165.0
-1706507.0
-1707591.0
-1707327.0
-1706831.0
-1707017.0
-1707529.0
-1707745.0
-1707901.0
-1707311.0
-1707791.0
-1708505.0
-1707653.0
-1707915.0
-1708799.0
-1708783.0
-1708691.0
-1709201.0
-1709371.0
-1709247.0
-1709371.0
-1709759.0
-1710145.0
-1709899.0
-1710177.0
-1710641.0
-1710905.0
-1710703.0
-1710983.0
-1711121.0
-1711323.0
-1711493.0
-1710967.0
-1711943.0
-1711539.0
-1712005.0
-1712609.0
-1712329.0
-1712639.0
-1712825.0
-1713491.0
-1712903.0
-1713445.0
-1713987.0
-1713367.0
-1714187.0
-1713661.0
-1713831.0
-1714389.0
-1715009.0
-1715225.0
-1715147.0
-1715613.0
-1715457.0
-1715907.0
-1715983.0
-1716635.0
-1716279.0
-1716387.0
-1717315.0
-1717053.0
-1717409.0
-1717501.0
-1717703.0
-1717889.0
-1718617.0
-1718029.0
-1717935.0
-1718679.0
-1718787.0
-1719127.0
-1718725.0
-1719205.0
-1718973.0
-1719267.0
-1719329.0
-1718849.0
-1719437.0
-1719825.0
-1719839.0
-1719901.0
-1719531.0
-1720677.0
-1719839.0
-1720459.0
-1720677.0
-1720939.0
-1721033.0
-1721419.0
-1721095.0
-1721713.0
-1721405.0
-1721683.0
-1721667.0
-1722241.0
-1722859.0
-1722241.0
-1722797.0
-1723045.0
-1722783.0
-1722921.0
-1723139.0
-1723355.0
-1723495.0
-1723387.0
-1724053.0
-1723789.0
-1724129.0
-1724423.0
-1724053.0
-1724347.0
-1724237.0
-1724331.0
-1724347.0
-1724749.0
-1724889.0
-1725199.0
-1725431.0
-1725725.0
-1725771.0
-1725461.0
-1725601.0
-1725863.0
-1725925.0
-1725879.0
-1726437.0
-1726483.0
-1726329.0
-1726545.0
-1726871.0
-1727273.0
-1727119.0
-1726885.0
-1726685.0
-1727537.0
-1727831.0
-1727753.0
-1727985.0
-1727195.0
-1727723.0
-1728155.0
-1727785.0
-1727413.0
-1727583.0
-1727939.0
-1727909.0
-1727443.0
-1727583.0
-1727367.0
-1727613.0
-1727909.0
-1727799.0
-1728017.0
-1727753.0
-1727613.0
-1727847.0
-1728155.0
-1728125.0
-1728187.0
-1728217.0
-1727041.0
-1727645.0
-1727753.0
-1728109.0
-1728047.0
-1727521.0
-1727367.0
-1727551.0
-1727071.0
-1727645.0
-1727675.0
-1727939.0
-1727923.0
-1727969.0
-1727691.0
-1727397.0
-1727737.0
-1727645.0
-1727645.0
-1727955.0
-1728389.0
-1727831.0
-1727877.0
-1728403.0
-1727815.0
-1727785.0
-1728203.0
-1727629.0
-1728311.0
-1728683.0
-1728389.0
-1728311.0
-1728063.0
-1728497.0
-1728419.0
-1728683.0
-1728419.0
-1728357.0
-1728697.0
-1728713.0
-1728945.0
-1728697.0
-1729333.0
-1729271.0
-1728869.0
-1728759.0
-1728605.0
-1729363.0
-1729069.0
-1728589.0
-1728635.0
-1727645.0
-1727847.0
-1727427.0
-1727009.0
-1726839.0
-1726267.0
-1726639.0
-1725709.0
-1725291.0
-1725911.0
-1724951.0
-1725415.0
-1724765.0
-1724021.0
-1724253.0
-1723587.0
-1723525.0
-1723711.0
-1723247.0
-1723355.0
-1722689.0
-1722503.0
-1722597.0
-1722287.0
-1722659.0
-1722023.0
-1721559.0
-1721295.0
-1720923.0
-1721373.0
-1720011.0
-1720537.0
-1719531.0
-1719933.0
-1718941.0
-1719499.0
-1719003.0
-1719159.0
-1718121.0
-1718213.0
-1718229.0
-1718509.0
-1718075.0
-1717641.0
-1718151.0
-1717765.0
-1716945.0
-1717053.0
-1717177.0
-1716773.0
-1716573.0
-1716821.0
-1716387.0
-1716433.0
-1716371.0
-1716433.0
-1715983.0
-1716169.0
-1716169.0
-1715829.0
-1715271.0
-1715551.0
-1715659.0
-1715441.0
-1715427.0
-1714977.0
-1715023.0
-1714419.0
-1714079.0
-1714157.0
-1713693.0
-1713089.0
-1712779.0
-1711647.0
-1711385.0
-1710719.0
-1710007.0
-1709541.0
-1709077.0
-1708071.0
-1707839.0
-1706847.0
-1706399.0
-1706165.0
-1705531.0
-1705253.0
-1704369.0
-1703503.0
-1703177.0
-1703069.0
-1702249.0
-1702217.0
-1701397.0
-1701891.0
-1700793.0
-1700947.0
-1699569.0
-1699863.0
-1699337.0
-1698547.0
-1698237.0
-1697819.0
-1697617.0
-1696595.0
-1696193.0
-1695775.0
-1695791.0
-1695683.0
-1694799.0
-1694505.0
-1693995.0
-1694351.0
-1693963.0
-1693529.0
-1693205.0
-1693391.0
-1692941.0
-1692787.0
-1692973.0
-1692105.0
-1692183.0
-1691749.0
-1692121.0
-1691687.0
-1690743.0
-1690525.0
-1690433.0
-1690339.0
-1690263.0
-1690665.0
-1689937.0
-1690139.0
-1689875.0
-1689301.0
-1689085.0
-1688961.0
-1689255.0
-1689163.0
-1688295.0
-1688217.0
-1688497.0
-1688279.0
-1687195.0
-1687057.0
-1686669.0
-1686003.0
-1684765.0
-1683975.0
-1683401.0
-1682489.0
-1681915.0
-1680955.0
-1679793.0
-1679561.0
-1678679.0
-1678757.0
-1677131.0
-1676589.0
-1676635.0
-1676495.0
-1675411.0
-1675071.0
-1674915.0
-1673801.0
-1673987.0
-1673073.0
-1673475.0
-1672267.0
-1671771.0
-1671121.0
-1670735.0
-1670889.0
-1670393.0
-1669789.0
-1668985.0
-1669061.0
-1667839.0
-1668675.0
-1667901.0
-1667467.0
-1667203.0
-1666879.0
-1666321.0
-1666089.0
-1666011.0
-1665129.0
-1665205.0
-1665035.0
-1664307.0
-1664029.0
-1663827.0
-1664231.0
-1663657.0
-1663037.0
-1662853.0
-1663379.0
-1662511.0
-1662791.0
-1662449.0
-1661831.0
-1661799.0
-1661953.0
-1661939.0
-1661459.0
-1661319.0
-1661273.0
-1660637.0
-1660607.0
-1660389.0
-1661071.0
-1660637.0
-1659739.0
-1660219.0
-1659723.0
-1660173.0
-1659367.0
-1659181.0
-1658517.0
-1657711.0
-1656719.0
-1656395.0
-1655387.0
-1654551.0
-1653453.0
-1653421.0
-1652693.0
-1651795.0
-1650975.0
-1649905.0
-1650091.0
-1649179.0
-1648745.0
-1647861.0
-1647505.0
-1646359.0
-1646731.0
-1645647.0
-1645631.0
-1645385.0
-1645075.0
-1644501.0
-1644889.0
-1644129.0
-1643665.0
-1642737.0
-1642783.0
-1642349.0
-1641791.0
-1641683.0
-1641171.0
-1640491.0
-1640491.0
-1640011.0
-1639453.0
-1639515.0
-1639127.0
-1638477.0
-1638523.0
-1638339.0
-1638539.0
-1638291.0
-1637455.0
-1637967.0
-1637285.0
-1637797.0
-1637657.0
-1637131.0
-1637611.0
-1636913.0
-1637145.0
-1636851.0
-1636867.0
-1636635.0
-1636573.0
-1637021.0
-1636417.0
-1637439.0
-1636665.0
-1636665.0
-1636929.0
-1636479.0
-1637131.0
-1636773.0
-1636805.0
-1637193.0
-1636835.0
-1636355.0
-1636465.0
-1635845.0
-1635581.0
-1635443.0
-1634791.0
-1634311.0
-1633801.0
-1633445.0
-1632933.0
-1632267.0
-1632019.0
-1632035.0
-1631695.0
-1631215.0
-1631401.0
-1630115.0
-1630719.0
-1630207.0
-1629945.0
-1630379.0
-1630269.0
-1630099.0
-1629743.0
-1630007.0
-1630007.0
-1629511.0
-1629573.0
-1629403.0
-1629651.0
-1629805.0
-1629727.0
-1629371.0
-1629139.0
-1628861.0
-1629975.0
-1629015.0
-1628845.0
-1629573.0
-1629171.0
-1629449.0
-1630147.0
-1629945.0
-1629713.0
-1629557.0
-1630177.0
-1630193.0
-1629961.0
-1630751.0
-1630115.0
-1630425.0
-1631231.0
-1631509.0
-1631525.0
-1631587.0
-1631587.0
-1631787.0
-1632067.0
-1632747.0
-1632733.0
-1633213.0
-1632825.0
-1633119.0
-1633289.0
-1633553.0
-1634033.0
-1634281.0
-1634559.0
-1635087.0
-1635009.0
-1635551.0
-1635457.0
-1635567.0
-1635179.0
-1634947.0
-1634839.0
-1634667.0
-1634435.0
-1633971.0
-1633971.0
-1633367.0
-1632825.0
-1632841.0
-1633011.0
-1632113.0
-1632067.0
-1631169.0
-1631711.0
-1631463.0
-1631757.0
-1631385.0
-1631493.0
-1631525.0
-1631353.0
-1631091.0
-1631107.0
-1630951.0
-1631509.0
-1631091.0
-1631587.0
-1630765.0
-1631261.0
-1631107.0
-1630425.0
-1630797.0
-1631013.0
-1631029.0
-1630765.0
-1631277.0
-1631121.0
-1630889.0
-1631121.0
-1631183.0
-1631199.0
-1631587.0
-1631261.0
-1631663.0
-1631323.0
-1631679.0
-1632097.0
-1631695.0
-1632329.0
-1632469.0
-1631895.0
-1633321.0
-1632733.0
-1632995.0
-1633475.0
-1633181.0
-1634125.0
-1633801.0
-1633755.0
-1634033.0
-1634545.0
-1634745.0
-1634947.0
-1635071.0
-1635411.0
-1635147.0
-1635705.0
-1635999.0
-1636293.0
-1636511.0
-1637131.0
-1637471.0
-1636913.0
-1636867.0
-1636959.0
-1636635.0
-1636495.0
-1635613.0
-1636123.0
-1634823.0
-1635333.0
-1634421.0
-1633879.0
-1633693.0
-1633337.0
-1633537.0
-1633521.0
-1632437.0
-1632903.0
-1632609.0
-1632717.0
-1632485.0
-1632577.0
-1632779.0
-1632129.0
-1631865.0
-1632361.0
-1632437.0
-1632779.0
-1632733.0
-1633073.0
-1632253.0
-1632345.0
-1632315.0
-1631835.0
-1632515.0
-1632283.0
-1632315.0
-1632113.0
-1632299.0
-1632547.0
-1632283.0
-1632437.0
-1632779.0
-1632391.0
-1632903.0
-1632485.0
-1633011.0
-1633367.0
-1633119.0
-1633631.0
-1633491.0
-1634265.0
-1634003.0
-1634529.0
-1634435.0
-1634421.0
-1634575.0
-1634545.0
-1635241.0
-1634915.0
-1634963.0
-1635333.0
-1635751.0
-1636031.0
-1636651.0
-1636263.0
-1636945.0
-1636619.0
-1637131.0
-1637595.0
-1637285.0
-1637207.0
-1637703.0
-1638091.0
-1637811.0
-1637223.0
-1637439.0
-1636897.0
-1636231.0
-1635829.0
-1635799.0
-1635039.0
-1634839.0
-1634745.0
-1634575.0
-1634235.0
-1633785.0
-1633367.0
-1633553.0
-1633599.0
-1633337.0
-1632841.0
-1633073.0
-1632979.0
-1632377.0
-1632547.0
-1632639.0
-1632377.0
-1632717.0
-1632423.0
-1632191.0
-1632267.0
-1632623.0
-1631819.0
-1632221.0
-1632221.0
-1632175.0
-1632345.0
-1631943.0
-1632469.0
-1631835.0
-1632067.0
-1632267.0
-1631787.0
-1631881.0
-1631787.0
-1632345.0
-1632035.0
-1631943.0
-1632129.0
-1632593.0
-1633289.0
-1632701.0
-1633213.0
-1633011.0
-1632965.0
-1633429.0
-1633275.0
-1633475.0
-1633847.0
-1634405.0
-1634373.0
-1634297.0
-1634513.0
-1634761.0
-1635147.0
-1635209.0
-1636077.0
-1636231.0
-1636279.0
-1636449.0
-1636139.0
-1636897.0
-1637161.0
-1636727.0
-1636465.0
-1636479.0
-1635829.0
-1635969.0
-1635025.0
-1634575.0
-1634947.0
-1634125.0
-1633723.0
-1633521.0
-1632809.0
-1633321.0
-1632499.0
-1631881.0
-1631463.0
-1631711.0
-1631849.0
-1631649.0
-1632081.0
-1631013.0
-1631587.0
-1630873.0
-1630641.0
-1631107.0
-1631199.0
-1630827.0
-1630859.0
-1630503.0
-1630611.0
-1630967.0
-1630503.0
-1630317.0
-1630285.0
-1629805.0
-1630363.0
-1630007.0
-1629743.0
-1629651.0
-1630131.0
-1629867.0
-1629851.0
-1630193.0
-1630007.0
-1629619.0
-1629883.0
-1630207.0
-1630347.0
-1630657.0
-1630379.0
-1630997.0
-1631293.0
-1630843.0
-1630967.0
-1630905.0
-1631587.0
-1631307.0
-1632051.0
-1631803.0
-1632423.0
-1632005.0
-1631881.0
-1632763.0
-1632593.0
-1632779.0
-1633243.0
-1632979.0
-1633165.0
-1633491.0
-1633879.0
-1633677.0
-1632485.0
-1632561.0
-1632035.0
-1631927.0
-1631787.0
-1630997.0
-1631415.0
-1630331.0
-1629419.0
-1629527.0
-1629419.0
-1628737.0
-1628133.0
-1628521.0
-1627637.0
-1627017.0
-1627313.0
-1627079.0
-1627111.0
-1626895.0
-1626119.0
-1626291.0
-1626105.0
-1625919.0
-1626321.0
-1626119.0
-1625841.0
-1625717.0
-1625609.0
-1625391.0
-1625453.0
-1625453.0
-1625253.0
-1624587.0
-1625515.0
-1624665.0
-1624649.0
-1624431.0
-1624803.0
-1624447.0
-1624045.0
-1624603.0
-1624463.0
-1624169.0
-1624123.0
-1624153.0
-1624463.0
-1624091.0
-1624385.0
-1624075.0
-1624911.0
-1624865.0
-1625097.0
-1624989.0
-1625361.0
-1625283.0
-1625887.0
-1625035.0
-1625283.0
-1625145.0
-1625965.0
-1625593.0
-1625763.0
-1625671.0
-1626105.0
-1626723.0
-1625995.0
-1625949.0
-1626817.0
-1626971.0
-1626167.0
-1626181.0
-1625811.0
-1625051.0
-1625439.0
-1624385.0
-1624107.0
-1623921.0
-1623285.0
-1622419.0
-1621955.0
-1621675.0
-1620931.0
-1620483.0
-1620561.0
-1620561.0
-1619569.0
-1619615.0
-1619539.0
-1619121.0
-1618283.0
-1618531.0
-1618423.0
-1618655.0
-1617803.0
-1617989.0
-1617603.0
-1617401.0
-1617773.0
-1617247.0
-1617293.0
-1617123.0
-1617433.0
-1616395.0
-1616735.0
-1616317.0
-1616007.0
-1615977.0
-1616209.0
-1615589.0
-1615419.0
-1615869.0
-1615249.0
-1615683.0
-1615403.0
-1615141.0
-1615171.0
-1615203.0
-1615203.0
-1615419.0
-1615141.0
-1614799.0
-1615063.0
-1615017.0
-1615481.0
-1615217.0
-1615109.0
-1615295.0
-1615729.0
-1615109.0
-1615141.0
-1615635.0
-1615341.0
-1616287.0
-1616425.0
-1615791.0
-1615621.0
-1616255.0
-1616039.0
-1615977.0
-1616069.0
-1616349.0
-1615187.0
-1615419.0
-1614613.0
-1614195.0
-1613391.0
-1612879.0
-1611903.0
-1611703.0
-1611331.0
-1610975.0
-1610525.0
-1610417.0
-1609549.0
-1608311.0
-1608931.0
-1608419.0
-1607815.0
-1607723.0
-1607041.0
-1607227.0
-1606901.0
-1607289.0
-1607289.0
-1606515.0
-1606297.0
-1606345.0
-1605663.0
-1606035.0
-1605509.0
-1605275.0
-1604687.0
-1604905.0
-1604595.0
-1604951.0
-1604347.0
-1604315.0
-1604455.0
-1603697.0
-1604239.0
-1604487.0
-1604547.0
-1604471.0
-1604223.0
-1604409.0
-1604363.0
-1604547.0
-1604409.0
-1604207.0
-1604609.0
-1604547.0
-1604935.0
-1604951.0
-1604609.0
-1605059.0
-1604857.0
-1605029.0
-1605013.0
-1605725.0
-1605307.0
-1605261.0
-1605261.0
-1605369.0
-1605693.0
-1606267.0
-1605415.0
-1606453.0
-1606391.0
-1606437.0
-1606267.0
-1606175.0
-1605693.0
-1605509.0
-1604967.0
-1604595.0
-1603635.0
-1603557.0
-1602861.0
-1602613.0
-1601729.0
-1601249.0
-1600507.0
-1599779.0
-1599623.0
-1598819.0
-1598895.0
-1598447.0
-1598261.0
-1597719.0
-1597285.0
-1596929.0
-1596371.0
-1596697.0
-1596589.0
-1595629.0
-1595613.0
-1595055.0
-1594993.0
-1594915.0
-1595133.0
-1594049.0
-1594141.0
-1593909.0
-1593879.0
-1593227.0
-1593585.0
-1593599.0
-1592825.0
-1592685.0
-1592469.0
-1592237.0
-1592763.0
-1592841.0
-1591959.0
-1592237.0
-1591757.0
-1591757.0
-1592191.0
-1592129.0
-1591663.0
-1592005.0
-1592391.0
-1591959.0
-1592283.0
-1592315.0
-1592205.0
-1592407.0
-1592237.0
-1592267.0
-1592299.0
-1592253.0
-1592469.0
-1592779.0
-1592547.0
-1592547.0
-1592453.0
-1593103.0
-1592933.0
-1593631.0
-1593275.0
-1592717.0
-1592949.0
-1592701.0
-1592175.0
-1591477.0
-1590921.0
-1590285.0
-1590085.0
-1589403.0
-1588009.0
-1588535.0
-1587931.0
-1587855.0
-1586739.0
-1586523.0
-1586213.0
-1585515.0
-1585779.0
-1585361.0
-1584897.0
-1584943.0
-1584679.0
-1584323.0
-1584493.0
-1584277.0
-1583827.0
-1583843.0
-1583627.0
-1583751.0
-1583875.0
-1583007.0
-1582853.0
-1583239.0
-1583239.0
-1582821.0
-1582883.0
-1582945.0
-1582435.0
-1581707.0
-1582263.0
-1582667.0
-1581413.0
-1582759.0
-1582325.0
-1582357.0
-1582683.0
-1582141.0
-1582125.0
-1582031.0
-1582001.0
-1582713.0
-1582511.0
-1582713.0
-1583007.0
-1582853.0
-1582589.0
-1583255.0
-1583271.0
-1583395.0
-1583409.0
-1583163.0
-1583193.0
-1583177.0
-1583301.0
-1583595.0
-1583285.0
-1583827.0
-1584231.0
-1584061.0
-1584029.0
-1583781.0
-1584107.0
-1583905.0
-1583271.0
-1582171.0
-1582403.0
-1581443.0
-1581087.0
-1580313.0
-1580329.0
-1579615.0
-1578903.0
-1578887.0
-1578717.0
-1578377.0
-1577819.0
-1577587.0
-1577571.0
-1576767.0
-1576627.0
-1576689.0
-1576023.0
-1576425.0
-1576411.0
-1576225.0
-1575899.0
-1576565.0
-1576085.0
-1576177.0
-1576177.0
-1576209.0
-1575915.0
-1575993.0
-1576255.0
-1575527.0
-1575341.0
-1576225.0
-1575125.0
-1576131.0
-1575791.0
-1576055.0
-1575389.0
-1576209.0
-1576349.0
-1576565.0
-1576411.0
-1576673.0
-1576411.0
-1576503.0
-1576891.0
-1577231.0
-1577339.0
-1577571.0
-1577665.0
-1577881.0
-1577959.0
-1578671.0
-1578671.0
-1578841.0
-1579321.0
-1578903.0
-1579461.0
-1579801.0
-1579941.0
-1580281.0
-1580421.0
-1581009.0
-1580699.0
-1580839.0
-1581413.0
-1580653.0
-1580839.0
-1580453.0
-1580313.0
-1579817.0
-1578997.0
-1578609.0
-1578935.0
-1578175.0
-1577247.0
-1577727.0
-1576875.0
-1577541.0
-1576395.0
-1576565.0
-1576085.0
-1576581.0
-1575961.0
-1576085.0
-1575357.0
-1575621.0
-1575945.0
-1575993.0
-1575745.0
-1576239.0
-1575807.0
-1575759.0
-1575697.0
-1575621.0
-1575435.0
-1575821.0
-1575527.0
-1575465.0
-1575759.0
-1575635.0
-1575713.0
-1575527.0
-1575651.0
-1575869.0
-1575745.0
-1576425.0
-1576425.0
-1576535.0
-1576565.0
-1577045.0
-1577323.0
-1576967.0
-1577479.0
-1577851.0
-1577293.0
-1577463.0
-1578083.0
-1578145.0
-1578345.0
-1578547.0
-1579089.0
-1578903.0
-1579863.0
-1579879.0
-1579941.0
-1580065.0
-1580281.0
-1581071.0
-1581055.0
-1581397.0
-1581551.0
-1581783.0
-1582263.0
-1582325.0
-1582977.0
-1583053.0
-1582373.0
-1582945.0
-1582295.0
-1581117.0
-1582063.0
-1581427.0
-1580871.0
-1580453.0
-1580405.0
-1579755.0
-1579677.0
-1579739.0
-1579601.0
-1579027.0
-1579259.0
-1579353.0
-1578469.0
-1578625.0
-1578873.0
-1578253.0
-1578641.0
-1578517.0
-1578919.0
-1578609.0
-1578965.0
-1578547.0
-1578965.0
-1578795.0
-1578903.0
-1579027.0
-1579307.0
-1578671.0
-1579027.0
-1579167.0
-1578641.0
-1578919.0
-1579353.0
-1579011.0
-1579787.0
-1578547.0
-1579601.0
-1579833.0
-1580003.0
-1579429.0
-1580003.0
-1579879.0
-1580575.0
-1579801.0
-1580329.0
-1580143.0
-1581241.0
-1580731.0
-1581567.0
-1581845.0
-1582125.0
-1582017.0
-1582109.0
-1582929.0
-1582821.0
-1582991.0
-1583007.0
-1583533.0
-1583983.0
-1583951.0
-1584293.0
-1584493.0
-1585051.0
-1585253.0
-1585701.0
-1585393.0
-1585485.0
-1586337.0
-1585873.0
-1585887.0
-1585763.0
-1585935.0
-1585393.0
-1585207.0
-1584911.0
-1583673.0
-1583813.0
-1583735.0
-1584199.0
-1583147.0
-1583023.0
-1582991.0
-1582295.0
-1582605.0
-1581923.0
-1582419.0
-1582141.0
-1582279.0
-1582109.0
-1582171.0
-1581861.0
-1581877.0
-1582201.0
-1582079.0
-1581939.0
-1582001.0
-1582263.0
-1581381.0
-1582263.0
-1582497.0
-1581737.0
-1581923.0
-1582295.0
-1582001.0
-1582357.0
-1582465.0
-1582419.0
-1582497.0
-1582683.0
-1582543.0
-1583053.0
-1583425.0
-1583115.0
-1582403.0
-1583457.0
-1583827.0
-1584199.0
-1583827.0
-1584571.0
-1584727.0
-1585345.0
-1584819.0
-1585439.0
-1585935.0
-1586011.0
-1586213.0
-1587189.0
-1587297.0
-1587281.0
-1587993.0
-1588335.0
-1588629.0
-1588381.0
-1588969.0
-1589325.0
-1589247.0
-1590409.0
-1590223.0
-1590751.0
-1591183.0
-1591059.0
-1591261.0
-1591571.0
-1591431.0
-1591121.0
-1591169.0
-1590983.0
-1590393.0
-1590239.0
-1589961.0
-1589543.0
-1589913.0
-1589047.0
-1589031.0
-1589125.0
-1589729.0
-1589077.0
-1589419.0
-1589201.0
-1589433.0
-1588783.0
-1589063.0
-1589201.0
-1589791.0
-1589713.0
-1589619.0
-1589295.0
-1590301.0
-1590379.0
-1589247.0
-1589527.0
-1589527.0
-1589991.0
-1590455.0
-1590271.0
-1590069.0
-1590115.0
-1590611.0
-1590703.0
-1591091.0
-1590471.0
-1590889.0
-1591075.0
-1591323.0
-1591215.0
-1591695.0
-1591835.0
-1591757.0
-1591725.0
-1592159.0
-1592097.0
-1592283.0
-1592809.0
-1592949.0
-1593537.0
-1592919.0
-1593289.0
-1594607.0
-1594173.0
-1594653.0
-1594451.0
-1595163.0
-1594947.0
-1595225.0
-1596247.0
-1595783.0
-1596713.0
-1596603.0
-1597301.0
-1597285.0
-1596511.0
-1596945.0
-1596913.0
-1596851.0
-1596603.0
-1596697.0
-1596171.0
-1595937.0
-1595753.0
-1595333.0
-1595349.0
-1595705.0
-1595643.0
-1595473.0
-1594791.0
-1594421.0
-1594915.0
-1594637.0
-1594777.0
-1594343.0
-1594669.0
-1595039.0
-1594807.0
-1595705.0
-1595257.0
-1595039.0
-1595349.0
-1595025.0
-1595333.0
-1595535.0
-1595101.0
-1596031.0
-1595829.0
-1595519.0
-1595937.0
-1596295.0
-1595953.0
-1595923.0
-1596077.0
-1596403.0
-1596619.0
-1597007.0
-1597099.0
-1597347.0
-1597193.0
-1597641.0
-1598229.0
-1598555.0
-1598229.0
-1598911.0
-1598525.0
-1599809.0
-1599623.0
-1599995.0
-1600227.0
-1599763.0
-1600135.0
-1600645.0
-1601033.0
-1601543.0
-1601823.0
-1602023.0
-1602071.0
-1602907.0
-1602875.0
-1602581.0
-1603355.0
-1603231.0
-1603665.0
-1603711.0
-1603403.0
-1603417.0
-1603231.0
-1603263.0
-1602519.0
-1603123.0
-1602721.0
-1602395.0
-1602473.0
-1602085.0
-1602085.0
-1602303.0
-1602287.0
-1601605.0
-1602039.0
-1601853.0
-1602009.0
-1601699.0
-1601529.0
-1601993.0
-1602379.0
-1602365.0
-1602225.0
-1602395.0
-1602287.0
-1602737.0
-1602519.0
-1602519.0
-1602659.0
-1603123.0
-1602767.0
-1603403.0
-1603093.0
-1602767.0
-1603355.0
-1603185.0
-1603341.0
-1603697.0
-1604099.0
-1603805.0
-1604099.0
-1604889.0
-1604765.0
-1604703.0
-1605199.0
-1605307.0
-1605369.0
-1605957.0
-1606329.0
-1606825.0
-1606051.0
-1606917.0
-1607429.0
-1607367.0
-1607615.0
-1607909.0
-1608295.0
-1608761.0
-1609055.0
-1609441.0
-1609193.0
-1609735.0
-1609813.0
-1609921.0
-1610355.0
-1609829.0
-1610293.0
-1610247.0
-1610169.0
-1610091.0
-1610231.0
-1609379.0
-1610277.0
-1609411.0
-1609101.0
-1609441.0
-1608651.0
-1608775.0
-1608637.0
-1608513.0
-1608465.0
-1608157.0
-1608465.0
-1608063.0
-1608885.0
-1607909.0
-1608357.0
-1608001.0
-1609069.0
-1608775.0
-1608451.0
-1609179.0
-1609225.0
-1608575.0
-1608945.0
-1609007.0
-1608729.0
-1609349.0
-1609611.0
-1609209.0
-1609597.0
-1609673.0
-1609193.0
-1609365.0
-1609627.0
-1610029.0
-1610091.0
-1609597.0
-1610603.0
-1609829.0
-1610773.0
-1610695.0
-1610835.0
-1611533.0
-1611563.0
-1611687.0
-1612461.0
-1612075.0
-1612585.0
-1613173.0
-1613127.0
-1613281.0
-1613793.0
-1614119.0
-1614351.0
-1614335.0
-1614661.0
-1614397.0
-1615435.0
-1615807.0
-1615961.0
-1616395.0
-1615497.0
-1616085.0
-1615977.0
-1615511.0
-1615389.0
-1615465.0
-1615141.0
-1614675.0
-1614427.0
-1614785.0
-1614521.0
-1614289.0
-1613763.0
-1614181.0
-1613839.0
-1613545.0
-1613545.0
-1613669.0
-1613963.0
-1613777.0
-1613421.0
-1613561.0
-1613313.0
-1613653.0
-1613421.0
-1613529.0
-1614211.0
-1613143.0
-1614025.0
-1613823.0
-1614723.0
-1613623.0
-1614103.0
-1614133.0
-1613979.0
-1614103.0
-1613669.0
-1614133.0
-1614289.0
-1614087.0
-1614537.0
-1615017.0
-1614799.0
-1615217.0
-1615295.0
-1615203.0
-1615759.0
-1615961.0
-1616163.0
-1616735.0
-1616411.0
-1616673.0
-1616859.0
-1617199.0
-1617371.0
-1617417.0
-1618129.0
-1617773.0
-1618655.0
-1617897.0
-1618501.0
-1618841.0
-1619615.0
-1619121.0
-1619507.0
-1619429.0
-1619477.0
-1619677.0
-1618997.0
-1619429.0
-1618997.0
-1618655.0
-1618547.0
-1618501.0
-1617851.0
-1617943.0
-1617339.0
-1617633.0
-1617323.0
-1617077.0
-1616581.0
-1616411.0
-1616425.0
-1616875.0
-1616023.0
-1616363.0
-1616225.0
-1616379.0
-1617029.0
-1616549.0
-1616425.0
-1616705.0
-1616689.0
-1617061.0
-1617015.0
-1616363.0
-1616781.0
-1616287.0
-1616177.0
-1616535.0
-1616595.0
-1616891.0
-1617277.0
-1616535.0
-1616719.0
